0.9995391233101188
0.9995391233101188
0.9995391233101188
0.9995391233101188
0.9996415403523147
0.9996415403523147
0.9996415403523147
0.9996415403523147
0.9996415403523147
0.9996415403523147
0.998258910282671
0.998258910282671
0.998258910282671
0.998258910282671
0.998258910282671
0.998258910282671
0.8403318312167145
0.9989246210569439
0.9989246210569439
0.9989246210569439
0.9989246210569439
0.8390516181892667
0.8395124948791479
0.83946128635805
0.8398709545268332
0.9996415403523147
0.9996415403523147
0.9996415403523147
0.8396661204424416
0.9994879147890209
0.9994879147890209
0.9994879147890209
0.9994879147890209
0.9994879147890209
0.8386931585415813
0.9990782466202376
0.9990782466202376
0.9990782466202376
0.9990782466202376
0.9990782466202376
0.9990782466202376
0.840639082343302
0.9990270380991397
0.9990270380991397
0.9990270380991397
0.8387443670626792
0.9991806636624334
0.9991806636624334
0.9991806636624334
0.9991806636624334
0.9991806636624334
0.8384883244571897
1.0
1.0
1.0
1.0
1.0
1.0
0.8403830397378124
0.9994879147890209
0.9994879147890209
0.9994879147890209
0.9994879147890209
0.9994879147890209
0.8390004096681688
0.9991294551413356
0.9991294551413356
0.9991294551413356
0.9991294551413356
0.9991294551413356
0.9991294551413356
0.9997951659156084
0.9997951659156084
0.9997951659156084
0.9997951659156084
0.9997951659156084
0.9997951659156084
0.8380274477673085
0.9996415403523147
0.9996415403523147
0.9996415403523147
0.9996415403523147
0.9996415403523147
0.836542400655469
0.9993854977468251
0.9993854977468251
0.9993854977468251
0.9993854977468251
0.8379250307251127
0.9993342892257272
0.9993342892257272
0.9993342892257272
0.9993342892257272
0.9993342892257272
0.8387443670626792
0.9995903318312167
0.9995903318312167
0.9995903318312167
0.9995903318312167
0.9995903318312167
0.8373105284719378
0.9993854977468251
0.9993854977468251
0.9993854977468251
0.9993854977468251
0.9993854977468251
0.9993854977468251
0.8396149119213437
0.9996927488734125
0.9996927488734125
0.9996927488734125
0.9996927488734125
0.9996927488734125
0.838283490372798
0.9994879147890209
0.9994879147890209
0.9994879147890209
0.9994879147890209
0.9994879147890209
0.9994879147890209
0.9994879147890209
0.9991806636624334
0.9991806636624334
0.9991806636624334
0.9991806636624334
0.9991806636624334
0.838846784104875
0.9993854977468251
0.9993854977468251
0.9993854977468251
0.9993854977468251
0.9993854977468251
0.8369520688242523
0.9987709954936501
0.9987709954936501
0.9987709954936501
0.8374129455141336
0.9989246210569439
0.9989246210569439
0.9989246210569439
0.9989246210569439
0.9989246210569439
0.9989246210569439
0.8384883244571897
0.9984637443670626
0.9984637443670626
0.9984637443670626
0.9984637443670626
0.9984637443670626
0.8387443670626792
0.9995903318312167
0.9995903318312167
0.9995903318312167
0.9995903318312167
0.9995903318312167
0.9995903318312167
0.8404854567800082
0.9992318721835314
0.9992318721835314
0.9992318721835314
0.9992318721835314
0.9992318721835314
0.8391028267103646
0.9992830807046292
0.9992830807046292
0.9992830807046292
0.9992830807046292
0.9992830807046292
0.9992830807046292
0.0
0.0
0.0
0.0
0.0
0.0
0.8398197460057354
0.8410999590331831
0.8391028267103646
0.8387443670626792
0.8400757886112249
0.8393076607947563
0.8395124948791479
0.8395124948791479
0.8395124948791479
0.8395124948791479
0.8395124948791479
0.8395124948791479
0.83946128635805
0.83946128635805
0.83946128635805
0.83946128635805
0.83946128635805
0.83946128635805
0.8391540352314625
0.8398709545268332
0.8398709545268332
0.8398709545268332
0.8398709545268332
0.8398709545268332
0.8375665710774273
0.8396661204424416
0.8396661204424416
0.8396661204424416
0.8396661204424416
0.8396661204424416
0.8396661204424416
0.8389492011470708
0.8386931585415813
0.8386931585415813
0.8386931585415813
0.8386931585415813
0.8386931585415813
0.8390516181892667
0.840639082343302
0.840639082343302
0.840639082343302
0.840639082343302
0.840639082343302
0.840639082343302
0.8409975419909873
0.8387443670626792
0.8387443670626792
0.8387443670626792
0.8383859074149939
0.8384883244571897
0.8384883244571897
0.8384883244571897
0.8384883244571897
0.8384883244571897
0.8389492011470708
0.8403830397378124
0.8403830397378124
0.8403830397378124
0.8403830397378124
0.8403830397378124
0.8403830397378124
0.8390004096681688
0.8390004096681688
0.8390004096681688
0.8390004096681688
0.8390004096681688
0.8390004096681688
0.8396661204424416
0.8379250307251127
0.8379250307251127
0.8379250307251127
0.8379250307251127
0.8379250307251127
0.837156902908644
0.8380274477673085
0.8380274477673085
0.8380274477673085
0.8380274477673085
0.8380274477673085
0.8380274477673085
0.8386931585415813
0.836542400655469
0.836542400655469
0.836542400655469
0.836542400655469
0.836542400655469
0.8370544858664482
0.8379250307251127
0.8379250307251127
0.8379250307251127
0.8379250307251127
0.8372081114297419
0.8387443670626792
0.8387443670626792
0.8387443670626792
0.8387443670626792
0.8387443670626792
0.8380786562884064
0.8373105284719378
0.8373105284719378
0.8373105284719378
0.8373105284719378
0.8373105284719378
0.8356718557968046
0.8396149119213437
0.8396149119213437
0.8396149119213437
0.8396149119213437
0.8396149119213437
0.8396149119213437
0.838283490372798
0.838283490372798
0.838283490372798
0.838283490372798
0.838283490372798
0.838283490372798
0.8358766898811962
0.9994879147890209
0.9994879147890209
0.9994879147890209
0.9994879147890209
0.9994879147890209
0.8334186808684965
0.838846784104875
0.838846784104875
0.838846784104875
0.838846784104875
0.838846784104875
0.838846784104875
0.8343404342482589
0.8369520688242523
0.8369520688242523
0.8369520688242523
0.8369520688242523
0.8369520688242523
0.8345452683326505
0.8374129455141336
0.8374129455141336
0.8374129455141336
0.8334186808684965
0.8384883244571897
0.8384883244571897
0.8384883244571897
0.8384883244571897
0.8384883244571897
0.8384883244571897
0.8346988938959443
0.8387443670626792
0.8387443670626792
0.8387443670626792
0.8387443670626792
0.8387443670626792
0.834238017206063
0.8404854567800082
0.8404854567800082
0.8404854567800082
0.8404854567800082
0.8404854567800082
0.8404854567800082
0.8370032773453503
0.8391028267103646
0.8391028267103646
0.8391028267103646
0.8391028267103646
0.8391028267103646
0.8353133961491193
0.8398709545268332
0.8398709545268332
0.8398709545268332
0.8398709545268332
0.8398709545268332
0.8340331831216714
0.8398197460057354
0.8398197460057354
0.8398197460057354
0.8398197460057354
0.8398197460057354
0.8398197460057354
0.8358766898811962
0.8391028267103646
0.8358766898811962
0.8356718557968046
0.8352109791069234
0.8353133961491193
0.8404854567800082
0.8404854567800082
0.8404854567800082
0.8404854567800082
0.8404854567800082
0.8404854567800082
0.8391540352314625
0.8391540352314625
0.8391540352314625
0.8391540352314625
0.8391540352314625
0.8391540352314625
0.8357742728390004
0.8375665710774273
0.8375665710774273
0.8375665710774273
0.8375665710774273
0.8375665710774273
0.8343916427693568
0.8389492011470708
0.8389492011470708
0.8389492011470708
0.8389492011470708
0.8389492011470708
0.8389492011470708
0.8372593199508398
0.8390516181892667
0.8390516181892667
0.8390516181892667
0.8390516181892667
0.8390516181892667
0.8358766898811962
0.8409975419909873
0.8409975419909873
0.8409975419909873
0.8409975419909873
0.8409975419909873
0.8409975419909873
0.8383859074149939
0.8383859074149939
0.8383859074149939
0.8383859074149939
0.8368496517820565
0.8389492011470708
0.8389492011470708
0.8389492011470708
0.8389492011470708
0.8389492011470708
0.8366448176976649
0.8403318312167145
0.8403318312167145
0.8403318312167145
0.8403318312167145
0.8403318312167145
0.8403318312167145
0.8396661204424416
0.8396661204424416
0.8396661204424416
0.8396661204424416
0.8396661204424416
0.8396661204424416
0.834903727980336
0.837156902908644
0.837156902908644
0.837156902908644
0.837156902908644
0.837156902908644
0.8343404342482589
0.8386931585415813
0.8386931585415813
0.8386931585415813
0.8386931585415813
0.8386931585415813
0.8386931585415813
0.8367472347398607
0.8370544858664482
0.8370544858664482
0.8370544858664482
0.8370544858664482
0.8370544858664482
0.8346988938959443
0.8372081114297419
0.8372081114297419
0.8372081114297419
0.8372081114297419
0.8341356001638672
0.8380786562884064
0.8380786562884064
0.8380786562884064
0.8380786562884064
0.8380786562884064
0.8356718557968046
0.8356718557968046
0.8356718557968046
0.8356718557968046
0.8356718557968046
0.8356718557968046
0.8347501024170422
0.8353646046702171
0.8353646046702171
0.8353646046702171
0.8353646046702171
0.8353646046702171
0.8326505530520278
0.8358766898811962
0.8358766898811962
0.8358766898811962
0.8358766898811962
0.8358766898811962
0.8358766898811962
0.8356206472757067
0.8334186808684965
0.8334186808684965
0.8334186808684965
0.8334186808684965
0.8334186808684965
0.8334698893895944
0.8343404342482589
0.8343404342482589
0.8343404342482589
0.8343404342482589
0.8343404342482589
0.8343404342482589
0.8345452683326505
0.8345452683326505
0.8345452683326505
0.8345452683326505
0.8345452683326505
0.8345452683326505
0.8328041786153216
0.8334186808684965
0.8334186808684965
0.8334186808684965
0.8327017615731258
0.8346988938959443
0.8346988938959443
0.8346988938959443
0.8346988938959443
0.8346988938959443
0.8310118803768947
0.834238017206063
0.834238017206063
0.834238017206063
0.834238017206063
0.834238017206063
0.834238017206063
0.8310630888979926
0.8370032773453503
0.8370032773453503
0.8370032773453503
0.8370032773453503
0.8370032773453503
0.8299877099549365
0.8353133961491193
0.8353133961491193
0.8353133961491193
0.8353133961491193
0.8353133961491193
0.8353133961491193
0.8324969274887342
0.8340331831216714
0.8340331831216714
0.8340331831216714
0.8340331831216714
0.8340331831216714
0.8320872593199509
0.8358766898811962
0.8358766898811962
0.8358766898811962
0.8358766898811962
0.8358766898811962
0.8358766898811962
0.8358766898811962
0.8358766898811962
0.8318824252355592
0.8317800081933634
0.8314727570667759
0.8311655059401885
0.8358254813600983
0.8358254813600983
0.8330602212208111
0.8357742728390004
0.8357742728390004
0.8357742728390004
0.8357742728390004
0.8357742728390004
0.8311655059401885
0.8343916427693568
0.8343916427693568
0.8343916427693568
0.8343916427693568
0.8343916427693568
0.8298340843916427
0.8372593199508398
0.8372593199508398
0.8372593199508398
0.8372593199508398
0.8372593199508398
0.8372593199508398
0.8306534207292093
0.8358766898811962
0.8358766898811962
0.8358766898811962
0.8358766898811962
0.8358766898811962
0.8287074969274887
0.8376689881196231
0.8376689881196231
0.8376689881196231
0.8376689881196231
0.8376689881196231
0.8376689881196231
0.8316263826300696
0.8368496517820565
0.8368496517820565
0.8368496517820565
0.8368496517820565
0.8368496517820565
0.8295780417861532
0.8366448176976649
0.8366448176976649
0.8366448176976649
0.8284002458009013
0.8344940598115527
0.8344940598115527
0.8344940598115527
0.8344940598115527
0.8344940598115527
0.8344940598115527
0.8344940598115527
0.834903727980336
0.834903727980336
0.834903727980336
0.834903727980336
0.834903727980336
0.82916837361737
0.8343404342482589
0.8343404342482589
0.8343404342482589
0.8343404342482589
0.8343404342482589
0.8343404342482589
0.8367472347398607
0.8367472347398607
0.8367472347398607
0.8367472347398607
0.8367472347398607
0.8367472347398607
0.8293732077017616
0.8346988938959443
0.8346988938959443
0.8346988938959443
0.8346988938959443
0.8346988938959443
0.8270688242523556
0.8341356001638672
0.8341356001638672
0.8341356001638672
0.8341356001638672
0.8341356001638672
0.8341356001638672
0.8301413355182302
0.8351085620647276
0.8351085620647276
0.8351085620647276
0.829117165096272
0.8347501024170422
0.8347501024170422
0.8347501024170422
0.8347501024170422
0.8347501024170422
0.8284002458009013
0.8326505530520278
0.8326505530520278
0.8326505530520278
0.8326505530520278
0.8326505530520278
0.8326505530520278
0.8320872593199509
0.8356206472757067
0.8356206472757067
0.8356206472757067
0.8356206472757067
0.8356206472757067
0.8303973781237198
0.8334698893895944
0.8334698893895944
0.8334698893895944
0.8334698893895944
0.8334698893895944
0.8334698893895944
0.8335210979106923
0.8335210979106923
0.8335210979106923
0.8335210979106923
0.8335210979106923
0.8335210979106923
0.8297828758705449
0.8328041786153216
0.8328041786153216
0.8328041786153216
0.8328041786153216
0.8328041786153216
0.8283490372798034
0.8327017615731258
0.8327017615731258
0.8327017615731258
0.8327017615731258
0.8303461696026219
0.8310118803768947
0.8310118803768947
0.8310118803768947
0.8310118803768947
0.8310118803768947
0.8301413355182302
0.8310630888979926
0.8310630888979926
0.8304485866448177
0.8299877099549365
0.8299877099549365
0.8299877099549365
0.8299877099549365
0.8299877099549365
0.8278881605899222
0.8324969274887342
0.8324969274887342
0.8324969274887342
0.8324969274887342
0.8324969274887342
0.8324969274887342
0.8320872593199509
0.8320872593199509
0.8320872593199509
0.8320872593199509
0.8320872593199509
0.8320872593199509
0.8257886112249079
0.8327017615731258
0.8327017615731258
0.8327017615731258
0.8327017615731258
0.8327017615731258
0.8232281851700123
0.8318824252355592
0.8318824252355592
0.8318824252355592
0.8318824252355592
0.8318824252355592
0.8318824252355592
0.8243035641130684
0.8317800081933634
0.8317800081933634
0.822255223269152
0.8212822613682916
0.8217431380581729
0.821128635804998
0.8311655059401885
0.8237402703809914
0.8298340843916427
0.8298340843916427
0.8298340843916427
0.8298340843916427
0.8298340843916427
0.8218455551003687
0.8306534207292093
0.8306534207292093
0.8306534207292093
0.8306534207292093
0.8306534207292093
0.8306534207292093
0.8287074969274887
0.8287074969274887
0.8287074969274887
0.8287074969274887
0.8287074969274887
0.8287074969274887
0.8226136829168373
0.8316263826300696
0.8316263826300696
0.8316263826300696
0.8316263826300696
0.8316263826300696
0.8210262187628021
0.8295780417861532
0.8295780417861532
0.8295780417861532
0.8295780417861532
0.8295780417861532
0.8295780417861532
0.8238938959442851
0.8284002458009013
0.8284002458009013
0.8284002458009013
0.8284002458009013
0.8284002458009013
0.8231257681278165
0.8344940598115527
0.8344940598115527
0.8344940598115527
0.8223576403113478
0.82916837361737
0.82916837361737
0.82916837361737
0.82916837361737
0.82916837361737
0.82916837361737
0.82916837361737
0.8284002458009013
0.8284002458009013
0.8284002458009013
0.8284002458009013
0.8284002458009013
0.8243547726341663
0.8293732077017616
0.8293732077017616
0.8293732077017616
0.8293732077017616
0.8293732077017616
0.8221528062269562
0.8270688242523556
0.8270688242523556
0.8270688242523556
0.8270688242523556
0.8270688242523556
0.8270688242523556
0.823945104465383
0.8301413355182302
0.8301413355182302
0.8301413355182302
0.8301413355182302
0.8301413355182302
0.8227160999590332
0.829117165096272
0.829117165096272
0.829117165096272
0.829117165096272
0.829117165096272
0.829117165096272
0.8250204834084391
0.8284002458009013
0.8284002458009013
0.8284002458009013
0.8237914789020893
0.8320872593199509
0.8320872593199509
0.8320872593199509
0.8320872593199509
0.8320872593199509
0.8235866448176976
0.8303973781237198
0.8303973781237198
0.8303973781237198
0.8303973781237198
0.8303973781237198
0.8303973781237198
0.8297828758705449
0.8297828758705449
0.8297828758705449
0.8297828758705449
0.8297828758705449
0.8297828758705449
0.8235866448176976
0.8297828758705449
0.8297828758705449
0.8297828758705449
0.8297828758705449
0.8297828758705449
0.8227160999590332
0.8283490372798034
0.8283490372798034
0.8283490372798034
0.8283490372798034
0.8283490372798034
0.8283490372798034
0.8249692748873413
0.8303461696026219
0.8303461696026219
0.8303461696026219
0.8303461696026219
0.8303461696026219
0.8236378533387956
0.8301413355182302
0.8301413355182302
0.8301413355182302
0.8301413355182302
0.8238426874231872
0.8304485866448177
0.8304485866448177
0.8304485866448177
0.8304485866448177
0.8304485866448177
0.8304485866448177
0.8278881605899222
0.8278881605899222
0.8278881605899222
0.8278881605899222
0.8278881605899222
0.824559606718558
0.8266079475624744
0.8266079475624744
0.8266079475624744
0.8266079475624744
0.8266079475624744
0.8221528062269562
0.8257886112249079
0.8257886112249079
0.8257886112249079
0.8257886112249079
0.8257886112249079
0.8257886112249079
0.826249487914789
0.8232281851700123
0.8232281851700123
0.8232281851700123
0.8232281851700123
0.8232281851700123
0.8249180663662433
0.8243035641130684
0.8243035641130684
0.8243035641130684
0.8243035641130684
0.8243035641130684
0.8243035641130684
0.822255223269152
0.822255223269152
0.822255223269152
0.822255223269152
0.822255223269152
0.822255223269152
0.8257374027038099
0.8259422367882016
0.8253277345350266
0.8260446538303974
0.8252765260139288
0.8218455551003687
0.8218455551003687
0.8218455551003687
0.8218455551003687
0.8218455551003687
0.8218455551003687
0.8275809094633347
0.8218967636214666
0.8218967636214666
0.8218967636214666
0.8218967636214666
0.8218967636214666
0.8266079475624744
0.8226136829168373
0.8226136829168373
0.8226136829168373
0.8226136829168373
0.8226136829168373
0.8226136829168373
0.8210262187628021
0.8210262187628021
0.8210262187628021
0.8210262187628021
0.8210262187628021
0.8210262187628021
0.826863990167964
0.8238938959442851
0.8238938959442851
0.8238938959442851
0.8238938959442851
0.8238938959442851
0.8249180663662433
0.8231257681278165
0.8231257681278165
0.8231257681278165
0.8231257681278165
0.8231257681278165
0.8231257681278165
0.8290147480540762
0.8223576403113478
0.8223576403113478
0.8223576403113478
0.8276833265055306
0.82916837361737
0.82916837361737
0.82916837361737
0.82916837361737
0.82916837361737
0.8273760753789431
0.8243547726341663
0.8243547726341663
0.8243547726341663
0.8243547726341663
0.8243547726341663
0.8243547726341663
0.8296804588283491
0.8221528062269562
0.8221528062269562
0.8221528062269562
0.8221528062269562
0.8221528062269562
0.8282978287587055
0.823945104465383
0.823945104465383
0.823945104465383
0.823945104465383
0.823945104465383
0.8272224498156493
0.8227160999590332
0.8227160999590332
0.8227160999590332
0.8227160999590332
0.8227160999590332
0.8227160999590332
0.8289635395329783
0.8250204834084391
0.8250204834084391
0.8250204834084391
0.8250204834084391
0.8250204834084391
0.8290659565751741
0.8237914789020893
0.8237914789020893
0.8237914789020893
0.8237914789020893
0.8235866448176976
0.8235866448176976
0.8235866448176976
0.8235866448176976
0.8235866448176976
0.8235866448176976
0.8314727570667759
0.8237402703809914
0.8237402703809914
0.8237402703809914
0.8237402703809914
0.8237402703809914
0.8313703400245801
0.8235866448176976
0.8235866448176976
0.8235866448176976
0.8235866448176976
0.8235866448176976
0.8235866448176976
0.8227160999590332
0.8227160999590332
0.8227160999590332
0.8227160999590332
0.8227160999590332
0.8227160999590332
0.8316263826300696
0.8249692748873413
0.8249692748873413
0.8249692748873413
0.8249692748873413
0.8249692748873413
0.8294244162228595
0.8236378533387956
0.8236378533387956
0.8236378533387956
0.8236378533387956
0.8236378533387956
0.8236378533387956
0.833162638263007
0.8238426874231872
0.8238426874231872
0.8238426874231872
0.8238426874231872
0.8320360507988529
0.8304485866448177
0.8304485866448177
0.8304485866448177
0.8304485866448177
0.8312679229823843
0.824559606718558
0.824559606718558
0.824559606718558
0.824559606718558
0.824559606718558
0.824559606718558
0.824559606718558
0.8221528062269562
0.8221528062269562
0.8221528062269562
0.8221528062269562
0.8221528062269562
0.8311655059401885
0.826249487914789
0.826249487914789
0.826249487914789
0.826249487914789
0.826249487914789
0.8284514543219992
0.8249180663662433
0.8249180663662433
0.8249180663662433
0.8249180663662433
0.8249180663662433
0.8249180663662433
0.8309606718557968
0.8255325686194183
0.8255325686194183
0.8255325686194183
0.8255325686194183
0.8255325686194183
0.8301413355182302
0.8257374027038099
0.8257374027038099
0.8257374027038099
0.8257374027038099
0.8257374027038099
0.8257374027038099
0.8257374027038099
0.8292707906595658
0.8293219991806636
0.8287587054485867
0.8274784924211389
0.8263006964358869
0.8266079475624744
0.8266079475624744
0.8266079475624744
0.8266079475624744
0.8266079475624744
0.8266079475624744
0.8272224498156493
0.8264543219991807
0.8264543219991807
0.8264543219991807
0.8264543219991807
0.8264543219991807
0.8257374027038099
0.826863990167964
0.826863990167964
0.826863990167964
0.826863990167964
0.826863990167964
0.826863990167964
0.8271200327734535
0.8249180663662433
0.8249180663662433
0.8249180663662433
0.8249180663662433
0.8249180663662433
0.82450839819746
0.8290147480540762
0.8290147480540762
0.8290147480540762
0.8290147480540762
0.8290147480540762
0.8290147480540762
0.8276833265055306
0.8276833265055306
0.8276833265055306
0.8276833265055306
0.8276833265055306
0.8276833265055306
0.8232281851700123
0.8273760753789431
0.8273760753789431
0.8273760753789431
0.8226648914379353
0.8296804588283491
0.8296804588283491
0.8296804588283491
0.8296804588283491
0.8296804588283491
0.8207701761573126
0.8282978287587055
0.8282978287587055
0.8282978287587055
0.8282978287587055
0.8282978287587055
0.8282978287587055
0.8216407210159771
0.8272224498156493
0.8272224498156493
0.8272224498156493
0.8272224498156493
0.8272224498156493
0.8203605079885293
0.8289635395329783
0.8289635395329783
0.8289635395329783
0.8289635395329783
0.8289635395329783
0.8289635395329783
0.8238426874231872
0.8290659565751741
0.8290659565751741
0.8290659565751741
0.8290659565751741
0.8290659565751741
0.8206677591151168
0.8293219991806636
0.8293219991806636
0.8293219991806636
0.8293219991806636
0.8293219991806636
0.8293219991806636
0.8314727570667759
0.8314727570667759
0.8314727570667759
0.8314727570667759
0.8210774272839001
0.8313703400245801
0.8313703400245801
0.8313703400245801
0.8313703400245801
0.8313703400245801
0.8200020483408439
0.8318824252355592
0.8318824252355592
0.8318824252355592
0.8318824252355592
0.8318824252355592
0.8198996312986481
0.8316263826300696
0.8316263826300696
0.8316263826300696
0.8316263826300696
0.8316263826300696
0.8316263826300696
0.8220503891847604
0.8294244162228595
0.8294244162228595
0.8294244162228595
0.8294244162228595
0.8294244162228595
0.8208725931995084
0.833162638263007
0.833162638263007
0.833162638263007
0.833162638263007
0.833162638263007
0.833162638263007
0.8320360507988529
0.8320360507988529
0.8320360507988529
0.8320360507988529
0.8320360507988529
0.8320360507988529
0.8208213846784105
0.8312679229823843
0.8312679229823843
0.8312679229823843
0.8312679229823843
0.8210262187628021
0.824559606718558
0.824559606718558
0.824559606718558
0.824559606718558
0.8195411716509627
0.8311655059401885
0.8311655059401885
0.8311655059401885
0.8311655059401885
0.8311655059401885
0.8311655059401885
0.8204629250307252
0.8284514543219992
0.8284514543219992
0.8284514543219992
0.8284514543219992
0.8284514543219992
0.8191315034821794
0.8309606718557968
0.8309606718557968
0.8309606718557968
0.8309606718557968
0.8309606718557968
0.8309606718557968
0.8214870954526833
0.8301413355182302
0.8301413355182302
0.8301413355182302
0.8301413355182302
0.8301413355182302
0.8216919295370749
0.8257374027038099
0.8257374027038099
0.8257374027038099
0.8257374027038099
0.8257374027038099
0.8257374027038099
0.8292707906595658
0.8292707906595658
0.8292707906595658
0.8292707906595658
0.8292707906595658
0.8292707906595658
0.8212822613682916
0.8213846784104875
0.8214870954526833
0.8206165505940188
0.819950839819746
0.8272224498156493
0.8272224498156493
0.8272224498156493
0.8272224498156493
0.8272224498156493
0.8272224498156493
0.8211798443260958
0.8257374027038099
0.8257374027038099
0.8257374027038099
0.8257374027038099
0.8257374027038099
0.8198996312986481
0.8271200327734535
0.8271200327734535
0.8271200327734535
0.8271200327734535
0.8271200327734535
0.8175440393281442
0.82450839819746
0.82450839819746
0.82450839819746
0.82450839819746
0.82450839819746
0.82450839819746
0.8187218353133962
0.824559606718558
0.824559606718558
0.824559606718558
0.824559606718558
0.824559606718558
0.818824252355592
0.8232281851700123
0.8232281851700123
0.8232281851700123
0.8232281851700123
0.8232281851700123
0.8232281851700123
0.8202068824252355
0.8226648914379353
0.8226648914379353
0.8226648914379353
0.8179024989758296
0.8207701761573126
0.8207701761573126
0.8207701761573126
0.8207701761573126
0.8207701761573126
0.8171855796804588
0.8216407210159771
0.8216407210159771
0.8216407210159771
0.8216407210159771
0.8216407210159771
0.8216407210159771
0.8203605079885293
0.8203605079885293
0.8203605079885293
0.8203605079885293
0.8203605079885293
0.8203605079885293
0.8188754608766898
0.8238426874231872
0.8238426874231872
0.8238426874231872
0.8238426874231872
0.8238426874231872
0.8166222859483818
0.8206677591151168
0.8206677591151168
0.8206677591151168
0.8206677591151168
0.8206677591151168
0.8206677591151168
0.818824252355592
0.8213334698893896
0.8213334698893896
0.8213334698893896
0.8213334698893896
0.8213334698893896
0.8181585415813192
0.8210774272839001
0.8210774272839001
0.8210774272839001
0.8210774272839001
0.818824252355592
0.8200020483408439
0.8200020483408439
0.8200020483408439
0.8200020483408439
0.8200020483408439
0.8192851290454731
0.8198996312986481
0.8198996312986481
0.8198996312986481
0.8198996312986481
0.8198996312986481
0.8190290864399836
0.8220503891847604
0.8220503891847604
0.8220503891847604
0.8220503891847604
0.8220503891847604
0.8220503891847604
0.8208725931995084
0.8208725931995084
0.8208725931995084
0.8211798443260958
0.8211798443260958
0.8211798443260958
0.8211798443260958
0.8211798443260958
0.8211798443260958
0.8194387546087669
0.8208213846784105
0.8208213846784105
0.8208213846784105
0.8208213846784105
0.8208213846784105
0.8174416222859484
0.8210262187628021
0.8210262187628021
0.8210262187628021
0.8210262187628021
0.8210262187628021
0.8210262187628021
0.820565342072921
0.8195411716509627
0.8195411716509627
0.8195411716509627
0.8185682097501025
0.8204629250307252
0.8204629250307252
0.8204629250307252
0.8204629250307252
0.8204629250307252
0.8180049160180254
0.8191315034821794
0.8191315034821794
0.8191315034821794
0.8191315034821794
0.8191315034821794
0.8191315034821794
0.8191315034821794
0.8214870954526833
0.8214870954526833
0.8214870954526833
0.8214870954526833
0.8214870954526833
0.8187218353133962
0.8216919295370749
0.8216919295370749
0.8216919295370749
0.8216919295370749
0.8216919295370749
0.8162638263006964
0.8218967636214666
0.8218967636214666
0.8218967636214666
0.8218967636214666
0.8218967636214666
0.8218967636214666
0.8185682097501025
0.8212822613682916
0.8212822613682916
0.8212822613682916
0.8212822613682916
0.8212822613682916
0.8179537074969275
0.8213846784104875
0.8213846784104875
0.8213846784104875
0.8213846784104875
0.8213846784104875
0.8200020483408439
0.818260958623515
0.8178512904547317
0.8184145841868087
0.8211798443260958
0.8191827120032773
0.8198996312986481
0.8198996312986481
0.8198996312986481
0.8198996312986481
0.8198996312986481
0.8166222859483818
0.8175440393281442
0.8175440393281442
0.8175440393281442
0.8175440393281442
0.8175440393281442
0.8175440393281442
0.8200532568619419
0.8187218353133962
0.8187218353133962
0.8187218353133962
0.8187218353133962
0.8187218353133962
0.8180049160180254
0.818824252355592
0.818824252355592
0.818824252355592
0.818824252355592
0.818824252355592
0.818824252355592
0.8202068824252355
0.8202068824252355
0.8202068824252355
0.8202068824252355
0.8202068824252355
0.8202068824252355
0.8179537074969275
0.8179024989758296
0.8179024989758296
0.8179024989758296
0.8179024989758296
0.8179024989758296
0.8154956984842278
0.8171855796804588
0.8171855796804588
0.8171855796804588
0.8146763621466612
0.8192339205243753
0.8192339205243753
0.8192339205243753
0.8192339205243753
0.8192339205243753
0.8192339205243753
0.8161102007374027
0.8188754608766898
0.8188754608766898
0.8188754608766898
0.8188754608766898
0.8188754608766898
0.813652191724703
0.8166222859483818
0.8166222859483818
0.8166222859483818
0.8166222859483818
0.8166222859483818
0.8166222859483818
0.818824252355592
0.818824252355592
0.818824252355592
0.818824252355592
0.818824252355592
0.818824252355592
0.8118598934862761
0.8181585415813192
0.8181585415813192
0.8181585415813192
0.8181585415813192
0.8181585415813192
0.8099651782056534
0.818824252355592
0.818824252355592
0.818824252355592
0.818824252355592
0.818824252355592
0.818824252355592
0.8122183531339615
0.8192851290454731
0.8192851290454731
0.8192851290454731
0.8100675952478492
0.8190290864399836
0.8190290864399836
0.8190290864399836
0.8190290864399836
0.8190290864399836
0.8098627611634576
0.8198484227775502
0.8198484227775502
0.8198484227775502
0.8198484227775502
0.8198484227775502
0.8198484227775502
0.8116550594018844
0.8185682097501025
0.8185682097501025
0.8185682097501025
0.8185682097501025
0.8185682097501025
0.810221220811143
0.8194387546087669
0.8194387546087669
0.8194387546087669
0.8194387546087669
0.8194387546087669
0.8073535436296599
0.8174416222859484
0.8174416222859484
0.8174416222859484
0.8174416222859484
0.8174416222859484
0.8174416222859484
0.8095555100368701
0.820565342072921
0.820565342072921
0.820565342072921
0.820565342072921
0.820565342072921
0.8100675952478492
0.8185682097501025
0.8185682097501025
0.8185682097501025
0.8185682097501025
0.81078451454322
0.8180049160180254
0.8180049160180254
0.8180049160180254
0.8180049160180254
0.8180049160180254
0.8118598934862761
0.8191315034821794
0.8191315034821794
0.8191315034821794
0.8191315034821794
0.8191315034821794
0.8116550594018844
0.8187218353133962
0.8187218353133962
0.8187218353133962
0.8187218353133962
0.8187218353133962
0.8187218353133962
0.8187218353133962
0.8162638263006964
0.8162638263006964
0.8162638263006964
0.8162638263006964
0.8162638263006964
0.8130376894715281
0.8185682097501025
0.8185682097501025
0.8185682097501025
0.8185682097501025
0.8185682097501025
0.8095555100368701
0.8179537074969275
0.8179537074969275
0.8179537074969275
0.8179537074969275
0.8179537074969275
0.8179537074969275
0.8129864809504301
0.8200020483408439
0.8200020483408439
0.8200020483408439
0.8200020483408439
0.8200020483408439
0.811347808275297
0.8121159360917657
0.8119623105284719
0.8118598934862761
0.8191827120032773
0.8115014338385907
0.8166222859483818
0.8166222859483818
0.8166222859483818
0.8166222859483818
0.8166222859483818
0.8166222859483818
0.8200532568619419
0.8200532568619419
0.8200532568619419
0.8200532568619419
0.8200532568619419
0.8200532568619419
0.81078451454322
0.8180049160180254
0.8180049160180254
0.8180049160180254
0.8180049160180254
0.8180049160180254
0.8089922163047931
0.8176464563703401
0.8176464563703401
0.8176464563703401
0.8176464563703401
0.8176464563703401
0.8176464563703401
0.8110405571487096
0.8179537074969275
0.8179537074969275
0.8179537074969275
0.8179537074969275
0.8179537074969275
0.8105796804588283
0.8154956984842278
0.8154956984842278
0.8154956984842278
0.8154956984842278
0.8154956984842278
0.8154956984842278
0.8129864809504301
0.8146763621466612
0.8146763621466612
0.8146763621466612
0.8118598934862761
0.8161102007374027
0.8161102007374027
0.8161102007374027
0.8161102007374027
0.8161102007374027
0.8107333060221221
0.813652191724703
0.813652191724703
0.813652191724703
0.813652191724703
0.813652191724703
0.813652191724703
0.8141130684145842
0.8141130684145842
0.8141130684145842
0.8141130684145842
0.8141130684145842
0.8141130684145842
0.8098627611634576
0.8118598934862761
0.8118598934862761
0.8118598934862761
0.8118598934862761
0.8118598934862761
0.8089410077836952
0.8099651782056534
0.8099651782056534
0.8099651782056534
0.8099651782056534
0.8099651782056534
0.8099651782056534
0.8112965997541991
0.8122183531339615
0.8122183531339615
0.8122183531339615
0.8122183531339615
0.8122183531339615
0.8106308889799263
0.8100675952478492
0.8100675952478492
0.8100675952478492
0.8108869315854158
0.8098627611634576
0.8098627611634576
0.8098627611634576
0.8098627611634576
0.8098627611634576
0.8098627611634576
0.8123207701761573
0.8116550594018844
0.8116550594018844
0.8116550594018844
0.8116550594018844
0.8116550594018844
0.8104772634166325
0.810221220811143
0.810221220811143
0.810221220811143
0.810221220811143
0.810221220811143
0.8079680458828349
0.8073535436296599
0.8073535436296599
0.8073535436296599
0.8073535436296599
0.8073535436296599
0.8073535436296599
0.810221220811143
0.8095555100368701
0.8095555100368701
0.8095555100368701
0.8095555100368701
0.8095555100368701
0.8091970503891848
0.8100675952478492
0.8100675952478492
0.8100675952478492
0.8100675952478492
0.8100675952478492
0.8100675952478492
0.8109381401065138
0.81078451454322
0.81078451454322
0.81078451454322
0.809094633346989
0.8118598934862761
0.8118598934862761
0.8118598934862761
0.8118598934862761
0.8118598934862761
0.8082752970094224
0.8116550594018844
0.8116550594018844
0.8116550594018844
0.8116550594018844
0.8116550594018844
0.8116550594018844
0.8187218353133962
0.8187218353133962
0.8187218353133962
0.8187218353133962
0.8187218353133962
0.8187218353133962
0.8092482589102826
0.8130376894715281
0.8130376894715281
0.8130376894715281
0.8130376894715281
0.8130376894715281
0.8076607947562474
0.8095555100368701
0.8095555100368701
0.8095555100368701
0.8095555100368701
0.8095555100368701
0.8095555100368701
0.8095043015157722
0.8129864809504301
0.8129864809504301
0.8129864809504301
0.8129864809504301
0.8129864809504301
0.8092482589102826
0.811347808275297
0.811347808275297
0.811347808275297
0.811347808275297
0.811347808275297
0.811347808275297
0.811347808275297
0.8096067185579681
0.8100675952478492
0.8092994674313806
0.8080704629250307
0.811911102007374
0.811911102007374
0.811911102007374
0.811911102007374
0.811911102007374
0.811911102007374
0.8099139696845555
0.81078451454322
0.81078451454322
0.81078451454322
0.81078451454322
0.81078451454322
0.809043424825891
0.8089922163047931
0.8089922163047931
0.8089922163047931
0.8089922163047931
0.8089922163047931
0.8089922163047931
0.8112453912331012
0.8110405571487096
0.8110405571487096
0.8110405571487096
0.8110405571487096
0.8110405571487096
0.810170012290045
0.8105796804588283
0.8105796804588283
0.8105796804588283
0.8105796804588283
0.8105796804588283
0.8080192544039329
0.8129864809504301
0.8129864809504301
0.8129864809504301
0.8129864809504301
0.8129864809504301
0.8129864809504301
0.8106820975010242
0.8118598934862761
0.8118598934862761
0.8118598934862761
0.8102724293322409
0.8107333060221221
0.8107333060221221
0.8107333060221221
0.8107333060221221
0.8107333060221221
0.8086849651782057
0.8112453912331012
0.8112453912331012
0.8112453912331012
0.8112453912331012
0.8112453912331012
0.8112453912331012
0.8103236378533388
0.8098627611634576
0.8098627611634576
0.8098627611634576
0.8098627611634576
0.8098627611634576
0.8095043015157722
0.8089410077836952
0.8089410077836952
0.8089410077836952
0.8089410077836952
0.8089410077836952
0.8089410077836952
0.8113990167963949
0.8112965997541991
0.8112965997541991
0.8112965997541991
0.8112965997541991
0.8112965997541991
0.8084289225727161
0.8106308889799263
0.8106308889799263
0.8106308889799263
0.8106308889799263
0.8106308889799263
0.8106308889799263
0.8108869315854158
0.8108869315854158
0.8108869315854158
0.8108869315854158
0.8077120032773454
0.8123207701761573
0.8123207701761573
0.8123207701761573
0.8123207701761573
0.8123207701761573
0.8072511265874641
0.8104772634166325
0.8104772634166325
0.8104772634166325
0.8104772634166325
0.8104772634166325
0.8042810323637853
0.8079680458828349
0.8079680458828349
0.8079680458828349
0.8079680458828349
0.8079680458828349
0.8079680458828349
0.8048955346169603
0.810221220811143
0.810221220811143
0.810221220811143
0.810221220811143
0.810221220811143
0.8024887341253585
0.8091970503891848
0.8091970503891848
0.8091970503891848
0.8091970503891848
0.8091970503891848
0.8091970503891848
0.8035129045473167
0.8109381401065138
0.8109381401065138
0.8109381401065138
0.8109381401065138
0.8109381401065138
0.8028984022941418
0.809094633346989
0.809094633346989
0.809094633346989
0.809094633346989
0.8022839000409668
0.8082752970094224
0.8082752970094224
0.8082752970094224
0.8082752970094224
0.8082752970094224
0.8041274068004916
0.8093506759524784
0.8093506759524784
0.8093506759524784
0.8093506759524784
0.8093506759524784
0.8017206063088897
0.8092482589102826
0.8092482589102826
0.8092482589102826
0.8092482589102826
0.8092482589102826
0.8092482589102826
0.8076607947562474
0.8076607947562474
0.8076607947562474
0.8076607947562474
0.8076607947562474
0.8076607947562474
0.8026935682097501
0.8095043015157722
0.8095043015157722
0.8095043015157722
0.8095043015157722
0.8095043015157722
0.8012085210979107
0.8092482589102826
0.8092482589102826
0.8092482589102826
0.8092482589102826
0.8092482589102826
0.8092482589102826
0.8034616960262188
0.811347808275297
0.811347808275297
0.811347808275297
0.811347808275297
0.811347808275297
0.8031032363785334
0.8031544448996313
0.8034616960262188
0.8038201556739042
0.8039225727160999
0.8099139696845555
0.8099139696845555
0.8099139696845555
0.8099139696845555
0.8099139696845555
0.8099139696845555
0.809043424825891
0.809043424825891
0.809043424825891
0.809043424825891
0.809043424825891
0.809043424825891
0.8043834494059812
0.8112453912331012
0.8112453912331012
0.8112453912331012
0.8112453912331012
0.8112453912331012
0.8017718148299877
0.810170012290045
0.810170012290045
0.810170012290045
0.810170012290045
0.810170012290045
0.810170012290045
0.8053564113068414
0.8080192544039329
0.8080192544039329
0.8080192544039329
0.8080192544039329
0.8080192544039329
0.8052539942646456
0.8106820975010242
0.8106820975010242
0.8106820975010242
0.8106820975010242
0.8106820975010242
0.8106820975010242
0.8080704629250307
0.8102724293322409
0.8102724293322409
0.8102724293322409
0.8064317902498975
0.8086849651782057
0.8086849651782057
0.8086849651782057
0.8086849651782057
0.8086849651782057
0.8065342072920934
0.8103236378533388
0.8103236378533388
0.8103236378533388
0.8103236378533388
0.8103236378533388
0.8103236378533388
0.8095043015157722
0.8095043015157722
0.8095043015157722
0.8095043015157722
0.8095043015157722
0.8095043015157722
0.8074047521507579
0.8113990167963949
0.8113990167963949
0.8113990167963949
0.8113990167963949
0.8113990167963949
0.8070975010241704
0.8084289225727161
0.8084289225727161
0.8084289225727161
0.8084289225727161
0.8084289225727161
0.8084289225727161
0.8075583777140516
0.8089922163047931
0.8089922163047931
0.8080704629250307
0.8077120032773454
0.8077120032773454
0.8077120032773454
0.8077120032773454
0.8077120032773454
0.8073023351085621
0.8072511265874641
0.8072511265874641
0.8072511265874641
0.8061245391233102
0.8042810323637853
0.8042810323637853
0.8042810323637853
0.8042810323637853
0.8042810323637853
0.8042810323637853
0.8088385907414993
0.8048955346169603
0.8048955346169603
0.8048955346169603
0.8048955346169603
0.8048955346169603
0.8070462925030725
0.8024887341253585
0.8024887341253585
0.8024887341253585
0.8024887341253585
0.8024887341253585
0.8024887341253585
0.8035129045473167
0.8035129045473167
0.8035129045473167
0.8035129045473167
0.8035129045473167
0.8035129045473167
0.8068926669397788
0.8028984022941418
0.8028984022941418
0.8028984022941418
0.8028984022941418
0.8028984022941418
0.8053564113068414
0.8022839000409668
0.8022839000409668
0.8022839000409668
0.8022839000409668
0.8022839000409668
0.8022839000409668
0.8081216714461287
0.8041274068004916
0.8041274068004916
0.8041274068004916
0.806739041376485
0.8017206063088897
0.8017206063088897
0.8017206063088897
0.8017206063088897
0.8017206063088897
0.8057148709545269
0.8028471937730438
0.8028471937730438
0.8028471937730438
0.8028471937730438
0.8028471937730438
0.8028471937730438
0.8081216714461287
0.8026935682097501
0.8026935682097501
0.8026935682097501
0.8026935682097501
0.8026935682097501
0.8059197050389185
0.8012085210979107
0.8012085210979107
0.8012085210979107
0.8012085210979107
0.8012085210979107
0.8031032363785334
0.8034616960262188
0.8034616960262188
0.8034616960262188
0.8034616960262188
0.8034616960262188
0.8034616960262188
0.8055612453912331
0.8031032363785334
0.8031032363785334
0.8031032363785334
0.8031032363785334
0.8031032363785334
0.8054588283490373
0.8031544448996313
0.8031544448996313
0.8031544448996313
0.8031544448996313
0.8031544448996313
0.8074047521507579
0.8065854158131913
0.8060733306022122
0.806175747644408
0.8045370749692748
0.8043834494059812
0.8043834494059812
0.8043834494059812
0.8017718148299877
0.8017718148299877
0.8017718148299877
0.8017718148299877
0.8017718148299877
0.8017718148299877
0.8071999180663663
0.8053564113068414
0.8053564113068414
0.8053564113068414
0.8053564113068414
0.8053564113068414
0.8048443260958623
0.8052539942646456
0.8052539942646456
0.8052539942646456
0.8052539942646456
0.8052539942646456
0.8052539942646456
0.807916837361737
0.8080704629250307
0.8080704629250307
0.8080704629250307
0.8080704629250307
0.8080704629250307
0.8074559606718558
0.8064317902498975
0.8064317902498975
0.8064317902498975
0.8064317902498975
0.8064317902498975
0.8064317902498975
0.809043424825891
0.8065342072920934
0.8065342072920934
0.8065342072920934
0.8071999180663663
0.8086849651782057
0.8086849651782057
0.8086849651782057
0.8086849651782057
0.8086849651782057
0.8068414584186808
0.8074047521507579
0.8074047521507579
0.8074047521507579
0.8074047521507579
0.8074047521507579
0.8074047521507579
0.8070975010241704
0.8070975010241704
0.8070975010241704
0.8070975010241704
0.8070975010241704
0.8070975010241704
0.8069438754608766
0.8075583777140516
0.8075583777140516
0.8075583777140516
0.8075583777140516
0.8075583777140516
0.8058172879967227
0.8080704629250307
0.8080704629250307
0.8080704629250307
0.8080704629250307
0.8080704629250307
0.8080704629250307
0.809043424825891
0.8073023351085621
0.8073023351085621
0.8073023351085621
0.8073023351085621
0.8073023351085621
0.8077120032773454
0.8061245391233102
0.8061245391233102
0.8061245391233102
0.8061245391233102
0.8061245391233102
0.8075071691929537
0.8088385907414993
0.8088385907414993
0.8088385907414993
0.8088385907414993
0.8084289225727161
0.8070462925030725
0.8070462925030725
0.8070462925030725
0.8070462925030725
0.8070462925030725
0.8074047521507579
0.8063805817287997
0.8063805817287997
0.8063805817287997
0.8063805817287997
0.8063805817287997
0.8068926669397788
0.8068926669397788
0.8068926669397788
0.8068926669397788
0.8068926669397788
0.8068926669397788
0.8068926669397788
0.808480131093814
0.8053564113068414
0.8053564113068414
0.8053564113068414
0.8053564113068414
0.8053564113068414
0.8074047521507579
0.8081216714461287
0.8081216714461287
0.8081216714461287
0.8081216714461287
0.8081216714461287
0.8081216714461287
0.8089922163047931
0.806739041376485
0.806739041376485
0.806739041376485
0.806739041376485
0.806739041376485
0.8080704629250307
0.8057148709545269
0.8057148709545269
0.8057148709545269
0.8063293732077018
0.8081216714461287
0.8081216714461287
0.8081216714461287
0.8081216714461287
0.8081216714461287
0.8081216714461287
0.8092994674313806
0.8059197050389185
0.8059197050389185
0.8059197050389185
0.8059197050389185
0.8059197050389185
0.8064829987709955
0.8031032363785334
0.8031032363785334
0.8031032363785334
0.8031032363785334
0.8031032363785334
0.8031032363785334
0.8055612453912331
0.8055612453912331
0.8055612453912331
0.8055612453912331
0.8055612453912331
0.8055612453912331
0.8043834494059812
0.8054588283490373
0.8054588283490373
0.8054588283490373
0.8054588283490373
0.8054588283490373
0.8024375256042605
0.8074047521507579
0.8074047521507579
0.8074047521507579
0.8074047521507579
0.8074047521507579
0.8074047521507579
0.8034104875051209
0.8065854158131913
0.8065854158131913
0.8017718148299877
0.8015669807455961
0.8016181892666939
0.8012597296190086
0.8066878328553871
0.8066878328553871
0.8010036870135191
0.8071999180663663
0.8071999180663663
0.8071999180663663
0.8071999180663663
0.8071999180663663
0.8071999180663663
0.8048443260958623
0.8048443260958623
0.8048443260958623
0.8048443260958623
0.8048443260958623
0.8048443260958623
0.8018742318721835
0.807916837361737
0.807916837361737
0.807916837361737
0.807916837361737
0.807916837361737
0.8001331421548545
0.8074559606718558
0.8074559606718558
0.8074559606718558
0.8074559606718558
0.8074559606718558
0.8074559606718558
0.8029496108152396
0.809043424825891
0.809043424825891
0.809043424825891
0.809043424825891
0.809043424825891
0.8016181892666939
0.8071999180663663
0.8071999180663663
0.8071999180663663
0.8071999180663663
0.8071999180663663
0.8071999180663663
0.8045882834903728
0.8068414584186808
0.8068414584186808
0.8068414584186808
0.8042298238426874
0.8072511265874641
0.8072511265874641
0.8072511265874641
0.8072511265874641
0.8072511265874641
0.8032568619418271
0.8069438754608766
0.8069438754608766
0.8069438754608766
0.8069438754608766
0.8069438754608766
0.8069438754608766
0.8058172879967227
0.8058172879967227
0.8058172879967227
0.8058172879967227
0.8058172879967227
0.8058172879967227
0.8036153215895125
0.809043424825891
0.809043424825891
0.809043424825891
0.809043424825891
0.809043424825891
0.802130274477673
0.8077120032773454
0.8077120032773454
0.8077120032773454
0.8077120032773454
0.8077120032773454
0.8077120032773454
0.8045882834903728
0.8075071691929537
0.8075071691929537
0.8075071691929537
0.8075071691929537
0.8075071691929537
0.8037689471528062
0.8084289225727161
0.8084289225727161
0.8084289225727161
0.802795985251946
0.8074047521507579
0.8074047521507579
0.8074047521507579
0.8074047521507579
0.8074047521507579
0.8074047521507579
0.804434657927079
0.8068926669397788
0.8068926669397788
0.8068926669397788
0.8068926669397788
0.8068926669397788
0.803871364195002
0.808480131093814
0.808480131093814
0.808480131093814
0.808480131093814
0.808480131093814
0.808480131093814
0.8074047521507579
0.8074047521507579
0.8074047521507579
0.8074047521507579
0.8074047521507579
0.8074047521507579
0.8046394920114707
0.8089922163047931
0.8089922163047931
0.8089922163047931
0.8089922163047931
0.8089922163047931
0.8017206063088897
0.8080704629250307
0.8080704629250307
0.8080704629250307
0.8080704629250307
0.8080704629250307
0.8080704629250307
0.8043322408848832
0.8063293732077018
0.8063293732077018
0.8063293732077018
0.8041274068004916
0.8092994674313806
0.8092994674313806
0.8092994674313806
0.8092994674313806
0.8092994674313806
0.8028471937730438
0.8064829987709955
0.8064829987709955
0.8064829987709955
0.8064829987709955
0.8064829987709955
0.8064829987709955
0.8048443260958623
0.806226956165506
0.806226956165506
0.806226956165506
0.806226956165506
0.806226956165506
0.8030520278574355
0.8043834494059812
0.8043834494059812
0.8043834494059812
0.8043834494059812
0.8043834494059812
0.8043834494059812
0.8024375256042605
0.8024375256042605
0.8024375256042605
0.8024375256042605
0.8024375256042605
0.8024375256042605
0.8037689471528062
0.8034104875051209
0.8034104875051209
0.8034104875051209
0.8034104875051209
0.8034104875051209
0.8019766489143794
0.8017718148299877
0.8017718148299877
0.8017718148299877
0.8017718148299877
0.8017718148299877
0.8043834494059812
0.8039225727160999
0.8043834494059812
0.8047419090536665
0.8058684965178206
0.802181482998771
0.802181482998771
0.802181482998771
0.8042810323637853
0.8018742318721835
0.8018742318721835
0.8018742318721835
0.8018742318721835
0.8018742318721835
0.8038201556739042
0.8001331421548545
0.8001331421548545
0.8001331421548545
0.8001331421548545
0.8001331421548545
0.8001331421548545
0.8029496108152396
0.8029496108152396
0.8029496108152396
0.8029496108152396
0.8029496108152396
0.8029496108152396
0.8037177386317084
0.8016181892666939
0.8016181892666939
0.8016181892666939
0.8016181892666939
0.8016181892666939
0.8016181892666939
0.8045882834903728
0.8045882834903728
0.8045882834903728
0.8045882834903728
0.8045882834903728
0.8045882834903728
0.8036153215895125
0.8042298238426874
0.8042298238426874
0.8042298238426874
0.8046907005325686
0.8032568619418271
0.8032568619418271
0.8032568619418271
0.8032568619418271
0.8032568619418271
0.8023863170831627
0.8048955346169603
0.8048955346169603
0.8048955346169603
0.8048955346169603
0.8048955346169603
0.8048955346169603
0.8042810323637853
0.8036153215895125
0.8036153215895125
0.8036153215895125
0.8036153215895125
0.8036153215895125
0.8030008193363376
0.802130274477673
0.802130274477673
0.802130274477673
0.802130274477673
0.802130274477673
0.802130274477673
0.8051515772224498
0.8045882834903728
0.8045882834903728
0.8045882834903728
0.8045882834903728
0.8045882834903728
0.8031032363785334
0.8037689471528062
0.8037689471528062
0.8037689471528062
0.8037689471528062
0.8037689471528062
0.8009012699713233
0.802795985251946
0.802795985251946
0.802795985251946
0.802795985251946
0.802795985251946
0.802795985251946
0.802744776730848
0.804434657927079
0.804434657927079
0.804434657927079
0.8025399426464563
0.803871364195002
0.803871364195002
0.803871364195002
0.803871364195002
0.803871364195002
0.801054895534617
0.8049979516591561
0.8049979516591561
0.8049979516591561
0.8049979516591561
0.8049979516591561
0.8049979516591561
0.8032056534207292
0.8046394920114707
0.8046394920114707
0.8046394920114707
0.8046394920114707
0.8046394920114707
0.802181482998771
0.8017206063088897
0.8017206063088897
0.8017206063088897
0.8017206063088897
0.8017206063088897
0.8017206063088897
0.8043322408848832
0.8043322408848832
0.8043322408848832
0.8043322408848832
0.8043322408848832
0.8043322408848832
0.8031544448996313
0.8041274068004916
0.8041274068004916
0.8041274068004916
0.8041274068004916
0.8041274068004916
0.8017206063088897
0.8028471937730438
0.8028471937730438
0.8028471937730438
0.8026935682097501
0.8048443260958623
0.8048443260958623
0.8048443260958623
0.8048443260958623
0.8048443260958623
0.8048443260958623
0.8037689471528062
0.8030520278574355
0.8030520278574355
0.8030520278574355
0.8030520278574355
0.8030520278574355
0.8031032363785334
0.8045370749692748
0.8045370749692748
0.8045370749692748
0.8045370749692748
0.8045370749692748
0.8045370749692748
0.8053564113068414
0.8037689471528062
0.8037689471528062
0.8037689471528062
0.8037689471528062
0.8037689471528062
0.8037689471528062
0.8019766489143794
0.8019766489143794
0.8019766489143794
0.8019766489143794
0.8019766489143794
0.8019766489143794
0.8043834494059812
0.8043834494059812
0.8043834494059812
0.8043834494059812
0.8043834494059812
0.8043834494059812
0.8035129045473167
0.8039225727160999
0.8039225727160999
0.8039225727160999
0.8035641130684146
0.8037177386317084
0.8040249897582957
0.8036665301106104
0.8042810323637853
0.8042810323637853
0.8042810323637853
0.8034616960262188
0.8038201556739042
0.8038201556739042
0.8038201556739042
0.8038201556739042
0.8038201556739042
0.8038201556739042
0.8051515772224498
0.8051515772224498
0.8051515772224498
0.8051515772224498
0.8051515772224498
0.8051515772224498
0.8030520278574355
0.8037177386317084
0.8037177386317084
0.8037177386317084
0.8037177386317084
0.8037177386317084
0.80049160180254
0.8036665301106104
0.8036665301106104
0.8036665301106104
0.8036665301106104
0.8036665301106104
0.8036665301106104
0.802181482998771
0.8036153215895125
0.8036153215895125
0.8036153215895125
0.8036153215895125
0.8036153215895125
0.799877099549365
0.8046907005325686
0.8046907005325686
0.8046907005325686
0.8046907005325686
0.7990065546907006
0.8023863170831627
0.7988529291274068
0.8042810323637853
0.8042810323637853
0.8042810323637853
0.8042810323637853
0.8042810323637853
0.8042810323637853
0.8001843506759525
0.8030008193363376
0.8030008193363376
0.8030008193363376
0.8030008193363376
0.8030008193363376
0.7986993035641131
0.8051515772224498
0.8051515772224498
0.8051515772224498
0.8051515772224498
0.8051515772224498
0.7969582138467841
0.8031032363785334
0.8031032363785334
0.8031032363785334
0.8031032363785334
0.8031032363785334
0.8031032363785334
0.799313805817288
0.8009012699713233
0.8009012699713233
0.8009012699713233
0.8009012699713233
0.8009012699713233
0.7977775501843507
0.802744776730848
0.802744776730848
0.802744776730848
0.802744776730848
0.802744776730848
0.802744776730848
0.8016181892666939
0.8025399426464563
0.8025399426464563
0.8025399426464563
0.7985968865219173
0.801054895534617
0.801054895534617
0.801054895534617
0.801054895534617
0.801054895534617
0.7984944694797215
0.8032056534207292
0.8032056534207292
0.8032056534207292
0.8032056534207292
0.8032056534207292
0.8032056534207292
0.802181482998771
0.802181482998771
0.802181482998771
0.802181482998771
0.802181482998771
0.802181482998771
0.7992113887750921
0.8039737812371979
0.8039737812371979
0.8039737812371979
0.8039737812371979
0.8039737812371979
0.7971630479311758
0.8031544448996313
0.8031544448996313
0.8031544448996313
0.8031544448996313
0.8031544448996313
0.8031544448996313
0.7997746825071692
0.8017206063088897
0.8017206063088897
0.8017206063088897
0.8017206063088897
0.8017206063088897
0.7986480950430151
0.8026935682097501
0.8026935682097501
0.8026935682097501
0.8026935682097501
0.8026935682097501
0.8013109381401066
0.8037689471528062
0.8037689471528062
0.8037689471528062
0.8037689471528062
0.8017206063088897
0.8031032363785334
0.8031032363785334
0.8031032363785334
0.8031032363785334
0.8031032363785334
0.8002867677181483
0.8053564113068414
0.8053564113068414
0.8053564113068414
0.8053564113068414
0.8053564113068414
0.8053564113068414
0.8037689471528062
0.8037689471528062
0.8037689471528062
0.8037689471528062
0.8037689471528062
0.8037689471528062
0.8000819336337567
0.8032568619418271
0.8032568619418271
0.8032568619418271
0.8032568619418271
0.8032568619418271
0.7990065546907006
0.8035129045473167
0.8035129045473167
0.8035129045473167
0.8035129045473167
0.8035129045473167
0.8035129045473167
0.8025911511675543
0.8035641130684146
0.8035641130684146
0.8035641130684146
0.8035641130684146
0.8035641130684146
0.8012597296190086
0.8037177386317084
0.8012597296190086
0.8018742318721835
0.8022326915198689
0.8016181892666939
0.8042810323637853
0.8042810323637853
0.8042810323637853
0.8042810323637853
0.8009012699713233
0.8030520278574355
0.8030520278574355
0.8030520278574355
0.8030520278574355
0.8030520278574355
0.8030520278574355
0.8020790659565752
0.80049160180254
0.80049160180254
0.80049160180254
0.80049160180254
0.80049160180254
0.8013621466612044
0.802181482998771
0.802181482998771
0.802181482998771
0.802181482998771
0.802181482998771
0.802181482998771
0.802181482998771
0.799877099549365
0.799877099549365
0.799877099549365
0.799877099549365
0.799877099549365
0.8011061040557149
0.7990065546907006
0.7990065546907006
0.7990065546907006
0.7990065546907006
0.7990065546907006
0.7990065546907006
0.7988529291274068
0.7988529291274068
0.7988529291274068
0.7988529291274068
0.7988529291274068
0.8001843506759525
0.8001843506759525
0.8001843506759525
0.8001843506759525
0.8001843506759525
0.8002867677181483
0.7986993035641131
0.7986993035641131
0.7986993035641131
0.7986993035641131
0.7986993035641131
0.7982896353953298
0.7969582138467841
0.7969582138467841
0.7969582138467841
0.7969582138467841
0.7969582138467841
0.7969582138467841
0.8014645637034002
0.799313805817288
0.799313805817288
0.799313805817288
0.799313805817288
0.799313805817288
0.8009012699713233
0.7977775501843507
0.7977775501843507
0.7977775501843507
0.7977775501843507
0.7977775501843507
0.7977775501843507
0.8016181892666939
0.8016181892666939
0.8016181892666939
0.8016181892666939
0.8016181892666939
0.8016181892666939
0.801054895534617
0.7985968865219173
0.7985968865219173
0.7985968865219173
0.7985968865219173
0.8015669807455961
0.7984944694797215
0.7984944694797215
0.7984944694797215
0.7984944694797215
0.7990065546907006
0.7996722654649734
0.7996722654649734
0.7996722654649734
0.7996722654649734
0.7996722654649734
0.7996722654649734
0.8018742318721835
0.7992113887750921
0.7992113887750921
0.7992113887750921
0.7992113887750921
0.7992113887750921
0.8001843506759525
0.7971630479311758
0.7971630479311758
0.7971630479311758
0.7971630479311758
0.7971630479311758
0.7971630479311758
0.802744776730848
0.7997746825071692
0.7997746825071692
0.7997746825071692
0.7997746825071692
0.7997746825071692
0.802181482998771
0.7986480950430151
0.7986480950430151
0.7986480950430151
0.7986480950430151
0.7986480950430151
0.7986480950430151
0.8013109381401066
0.8013109381401066
0.8013109381401066
0.8013109381401066
0.8013109381401066
0.8013109381401066
0.8020790659565752
0.8017206063088897
0.8017206063088897
0.8017206063088897
0.8022326915198689
0.8002867677181483
0.8002867677181483
0.8002867677181483
0.8002867677181483
0.8002867677181483
0.8002355591970504
0.8019766489143794
0.8019766489143794
0.8019766489143794
0.8019766489143794
0.8019766489143794
0.8019766489143794
0.8015669807455961
0.8000819336337567
0.8000819336337567
0.8000819336337567
0.8000819336337567
0.8000819336337567
0.8030008193363376
0.7990065546907006
0.7990065546907006
0.7990065546907006
0.7990065546907006
0.7990065546907006
0.7990065546907006
0.804485866448177
0.8025911511675543
0.8025911511675543
0.8025911511675543
0.8025911511675543
0.8025911511675543
0.8026935682097501
0.8012597296190086
0.8012597296190086
0.8012597296190086
0.8012597296190086
0.8012597296190086
0.8014133551823024
0.8012597296190086
0.8012597296190086
0.8025399426464563
0.8026423596886522
0.8024375256042605
0.8010036870135191
0.8009012699713233
0.8009012699713233
0.8009012699713233
0.8009012699713233
0.8009012699713233
0.8033080704629251
0.8020790659565752
0.8020790659565752
0.8020790659565752
0.8020790659565752
0.8020790659565752
0.8020278574354772
0.8013621466612044
0.8013621466612044
0.8013621466612044
0.8013621466612044
0.8013621466612044
0.8013621466612044
0.802181482998771
0.802181482998771
0.802181482998771
0.802181482998771
0.802181482998771
0.802181482998771
0.8022839000409668
0.8011061040557149
0.8011061040557149
0.8011061040557149
0.8011061040557149
0.8011061040557149
0.8006452273658337
0.799313805817288
0.799313805817288
0.799313805817288
0.799313805817288
0.799313805817288
0.799313805817288
0.8030520278574355
0.7988529291274068
0.7988529291274068
0.7988529291274068
0.8013109381401066
0.8002867677181483
0.8002867677181483
0.8002867677181483
0.8002867677181483
0.8002867677181483
0.80049160180254
0.7982896353953298
0.7982896353953298
0.7982896353953298
0.7982896353953298
0.7982896353953298
0.7982896353953298
0.8013621466612044
0.8014645637034002
0.8014645637034002
0.8014645637034002
0.8014645637034002
0.8014645637034002
0.798750512085211
0.8009012699713233
0.8009012699713233
0.8009012699713233
0.8009012699713233
0.8009012699713233
0.7960876689881197
0.8018742318721835
0.8018742318721835
0.8018742318721835
0.8018742318721835
0.8018742318721835
0.8018742318721835
0.7963437115936092
0.801054895534617
0.801054895534617
0.801054895534617
0.801054895534617
0.801054895534617
0.7938344940598115
0.8015669807455961
0.8015669807455961
0.8015669807455961
0.8015669807455961
0.8015669807455961
0.7961388775092175
0.7990065546907006
0.7990065546907006
0.7990065546907006
0.7990065546907006
0.794705038918476
0.8018742318721835
0.8018742318721835
0.8018742318721835
0.8018742318721835
0.8018742318721835
0.7942441622285948
0.8001843506759525
0.8001843506759525
0.8001843506759525
0.8001843506759525
0.8001843506759525
0.8001843506759525
0.7950122900450635
0.802744776730848
0.802744776730848
0.802744776730848
0.802744776730848
0.802744776730848
0.7943977877918885
0.802181482998771
0.802181482998771
0.802181482998771
0.802181482998771
0.802181482998771
0.802181482998771
0.8016693977877919
0.8016693977877919
0.8016693977877919
0.8016693977877919
0.8016693977877919
0.8016693977877919
0.7949098730028676
0.8020790659565752
0.8020790659565752
0.8020790659565752
0.8020790659565752
0.8020790659565752
0.7937320770176157
0.8022326915198689
0.8022326915198689
0.8022326915198689
0.793015157722245
0.8002355591970504
0.8002355591970504
0.8002355591970504
0.8002355591970504
0.8002355591970504
0.8002355591970504
0.7956267922982384
0.8015669807455961
0.8015669807455961
0.8015669807455961
0.8015669807455961
0.8015669807455961
0.7956267922982384
0.8030008193363376
0.8030008193363376
0.8030008193363376
0.8030008193363376
0.8030008193363376
0.8030008193363376
0.8030008193363376
0.804485866448177
0.804485866448177
0.804485866448177
0.804485866448177
0.804485866448177
0.7951659156083573
0.8026935682097501
0.8026935682097501
0.8026935682097501
0.8026935682097501
0.8026935682097501
0.7939369111020074
0.8014133551823024
0.8014133551823024
0.8014133551823024
0.8014133551823024
0.8014133551823024
0.8014133551823024
0.7965997541990987
0.8025399426464563
0.8025399426464563
0.7957804178615322
0.7972654649733716
0.7976751331421549
0.7994674313805817
0.8033080704629251
0.8033080704629251
0.8033080704629251
0.8033080704629251
0.8033080704629251
0.7979823842687424
0.8020278574354772
0.8020278574354772
0.8020278574354772
0.8020278574354772
0.8020278574354772
0.7975727160999591
0.802744776730848
0.802744776730848
0.802744776730848
0.802744776730848
0.802744776730848
0.802744776730848
0.7988017206063089
0.8022839000409668
0.8022839000409668
0.8022839000409668
0.8022839000409668
0.8022839000409668
0.7979823842687424
0.8006452273658337
0.8006452273658337
0.8006452273658337
0.8006452273658337
0.8006452273658337
0.8006452273658337
0.8008500614502253
0.8030520278574355
0.8030520278574355
0.8030520278574355
0.8030520278574355
0.8030520278574355
0.799877099549365
0.8013109381401066
0.8013109381401066
0.8013109381401066
0.7983920524375256
0.80049160180254
0.80049160180254
0.80049160180254
0.80049160180254
0.80049160180254
0.80049160180254
0.80049160180254
0.8013621466612044
0.8013621466612044
0.8013621466612044
0.8013621466612044
0.8013621466612044
0.7985968865219173
0.798750512085211
0.798750512085211
0.798750512085211
0.798750512085211
0.798750512085211
0.7962925030725113
0.7960876689881197
0.7960876689881197
0.7960876689881197
0.7960876689881197
0.7960876689881197
0.7960876689881197
0.7982384268742319
0.7963437115936092
0.7963437115936092
0.7963437115936092
0.7963437115936092
0.7963437115936092
0.7970606308889799
0.7938344940598115
0.7938344940598115
0.7938344940598115
0.7938344940598115
0.7938344940598115
0.7938344940598115
0.7992113887750921
0.7961388775092175
0.7961388775092175
0.7961388775092175
0.7961388775092175
0.7984944694797215
0.794705038918476
0.794705038918476
0.794705038918476
0.794705038918476
0.7990065546907006
0.7942441622285948
0.7942441622285948
0.7942441622285948
0.7942441622285948
0.7942441622285948
0.7942441622285948
0.7950122900450635
0.7950122900450635
0.7950122900450635
0.7950122900450635
0.7950122900450635
0.7950122900450635
0.7983408439164277
0.7943977877918885
0.7943977877918885
0.7943977877918885
0.7943977877918885
0.7943977877918885
0.7967533797623925
0.7944489963129865
0.7944489963129865
0.7944489963129865
0.7944489963129865
0.7944489963129865
0.7944489963129865
0.799877099549365
0.7949098730028676
0.7949098730028676
0.7949098730028676
0.7949098730028676
0.7949098730028676
0.798187218353134
0.7937320770176157
0.7937320770176157
0.7937320770176157
0.7937320770176157
0.7937320770176157
0.7937320770176157
0.793015157722245
0.793015157722245
0.793015157722245
0.793015157722245
0.800440393281442
0.7956267922982384
0.7956267922982384
0.7956267922982384
0.7956267922982384
0.7956267922982384
0.7986480950430151
0.7956267922982384
0.7956267922982384
0.7956267922982384
0.7956267922982384
0.7956267922982384
0.7956267922982384
0.8030008193363376
0.8030008193363376
0.8030008193363376
0.8030008193363376
0.8030008193363376
0.8030008193363376
0.7991601802539943
0.7951659156083573
0.7951659156083573
0.7951659156083573
0.7951659156083573
0.7951659156083573
0.7985968865219173
0.7939369111020074
0.7939369111020074
0.7939369111020074
0.7939369111020074
0.7939369111020074
0.7939369111020074
0.8016181892666939
0.7965997541990987
0.7965997541990987
0.7965997541990987
0.7965997541990987
0.7965997541990987
0.7989553461696026
0.7957804178615322
0.7957804178615322
0.7996210569438754
0.7996722654649734
0.7996722654649734
0.8009524784924211
0.7979823842687424
0.8007476444080295
0.7975727160999591
0.7975727160999591
0.7975727160999591
0.7975727160999591
0.7975727160999591
0.7975727160999591
0.8017718148299877
0.7988017206063089
0.7988017206063089
0.8019254403932814
0.7979823842687424
0.7979823842687424
0.7979823842687424
0.7979823842687424
0.7979823842687424
0.8012597296190086
0.8008500614502253
0.8008500614502253
0.8008500614502253
0.8008500614502253
0.8008500614502253
0.8008500614502253
0.8023863170831627
0.799877099549365
0.799877099549365
0.799877099549365
0.799877099549365
0.799877099549365
0.8013621466612044
0.7983920524375256
0.7983920524375256
0.7983920524375256
0.7983920524375256
0.7983920524375256
0.8005940188447358
0.80049160180254
0.80049160180254
0.80049160180254
0.80049160180254
0.8019766489143794
0.7985968865219173
0.7985968865219173
0.7985968865219173
0.7985968865219173
0.7985968865219173
0.8019766489143794
0.7962925030725113
0.7962925030725113
0.7962925030725113
0.7962925030725113
0.7962925030725113
0.7996722654649734
0.7982384268742319
0.7982384268742319
0.7982384268742319
0.7982384268742319
0.7982384268742319
0.7982384268742319
0.8033080704629251
0.7970606308889799
0.7970606308889799
0.7970606308889799
0.7970606308889799
0.7970606308889799
0.8019254403932814
0.7992113887750921
0.7992113887750921
0.7992113887750921
0.7992113887750921
0.7992113887750921
0.7992113887750921
0.8033592789840229
0.7984944694797215
0.7984944694797215
0.7984944694797215
0.7984944694797215
0.7984944694797215
0.8015669807455961
0.7990065546907006
0.7990065546907006
0.7990065546907006
0.7990065546907006
0.802130274477673
0.7991089717328963
0.7991089717328963
0.7991089717328963
0.7991089717328963
0.7991089717328963
0.7983408439164277
0.7983408439164277
0.7983408439164277
0.7983408439164277
0.7983408439164277
0.7983408439164277
0.8022839000409668
0.7967533797623925
0.7967533797623925
0.7967533797623925
0.7967533797623925
0.7967533797623925
0.7998258910282671
0.799877099549365
0.799877099549365
0.799877099549365
0.799877099549365
0.799877099549365
0.799877099549365
0.8018742318721835
0.798187218353134
0.798187218353134
0.798187218353134
0.798187218353134
0.798187218353134
0.7996722654649734
0.8002355591970504
0.8002355591970504
0.8002355591970504
0.8002355591970504
0.8002355591970504
0.8002355591970504
0.800440393281442
0.800440393281442
0.800440393281442
0.800440393281442
0.800440393281442
0.800440393281442
0.7965485456780008
0.7986480950430151
0.7986480950430151
0.7986480950430151
0.7950122900450635
0.798136009832036
0.798136009832036
0.798136009832036
0.798136009832036
0.798136009832036
0.7911716509627202
0.7991601802539943
0.7991601802539943
0.7991601802539943
0.7991601802539943
0.7991601802539943
0.7991601802539943
0.7934760344121262
0.7985968865219173
0.7985968865219173
0.7985968865219173
0.7985968865219173
0.7985968865219173
0.7925542810323638
0.8016181892666939
0.8016181892666939
0.8016181892666939
0.8016181892666939
0.8016181892666939
0.8016181892666939
0.7949098730028676
0.7989553461696026
0.7989553461696026
0.7989553461696026
0.7989553461696026
0.7989553461696026
0.7929127406800491
0.7996210569438754
0.7996210569438754
0.7996210569438754
0.7996210569438754
0.7996210569438754
0.7996210569438754
0.7996722654649734
0.7996722654649734
0.7996722654649734
0.7939369111020074
0.7945002048340843
0.7945514133551823
0.7945514133551823
0.8017718148299877
0.8017718148299877
0.8017718148299877
0.794756247439574
0.8019254403932814
0.8019254403932814
0.8019254403932814
0.8019254403932814
0.8019254403932814
0.7948586644817698
0.8012597296190086
0.8012597296190086
0.8012597296190086
0.8012597296190086
0.8012597296190086
0.8012597296190086
0.8023863170831627
0.8023863170831627
0.8023863170831627
0.8023863170831627
0.8023863170831627
0.8023863170831627
0.7949610815239656
0.8013621466612044
0.8013621466612044
0.8013621466612044
0.8013621466612044
0.8013621466612044
0.7940393281442032
0.8005940188447358
0.8005940188447358
0.8005940188447358
0.8005940188447358
0.8005940188447358
0.8005940188447358
0.7972654649733716
0.8019766489143794
0.8019766489143794
0.8019766489143794
0.8019766489143794
0.7957804178615322
0.8019766489143794
0.8019766489143794
0.8019766489143794
0.8019766489143794
0.7955243752560426
0.7996722654649734
0.7996722654649734
0.7996722654649734
0.7996722654649734
0.7996722654649734
0.7996722654649734
0.7980848013109382
0.8033080704629251
0.8033080704629251
0.8033080704629251
0.8033080704629251
0.8033080704629251
0.7966509627201966
0.8019254403932814
0.8019254403932814
0.8019254403932814
0.8019254403932814
0.8019254403932814
0.8019254403932814
0.8033592789840229
0.8033592789840229
0.8033592789840229
0.8033592789840229
0.8033592789840229
0.8033592789840229
0.7977775501843507
0.8015669807455961
0.8015669807455961
0.8015669807455961
0.8015669807455961
0.8015669807455961
0.7961900860303155
0.802130274477673
0.802130274477673
0.802130274477673
0.802130274477673
0.802130274477673
0.802130274477673
0.798187218353134
0.8029496108152396
0.8029496108152396
0.8029496108152396
0.798187218353134
0.8022839000409668
0.8022839000409668
0.8022839000409668
0.8022839000409668
0.8022839000409668
0.7980335927898402
0.7998258910282671
0.7998258910282671
0.7998258910282671
0.7998258910282671
0.7998258910282671
0.7998258910282671
0.7998258910282671
0.8018742318721835
0.8018742318721835
0.8018742318721835
0.8018742318721835
0.8018742318721835
0.7983920524375256
0.7996722654649734
0.7996722654649734
0.7996722654649734
0.7996722654649734
0.7996722654649734
0.7961900860303155
0.7983920524375256
0.7983920524375256
0.7983920524375256
0.7983920524375256
0.7983920524375256
0.7983920524375256
0.7986993035641131
0.7965485456780008
0.7965485456780008
0.7965485456780008
0.7965485456780008
0.7965485456780008
0.7970606308889799
0.7950122900450635
0.7950122900450635
0.7950122900450635
0.8010036870135191
0.7911716509627202
0.7911716509627202
0.7911716509627202
0.7911716509627202
0.7911716509627202
0.7911716509627202
0.7982384268742319
0.7934760344121262
0.7934760344121262
0.7934760344121262
0.7934760344121262
0.7934760344121262
0.7971118394100778
0.7925542810323638
0.7925542810323638
0.7925542810323638
0.7925542810323638
0.7925542810323638
0.7925542810323638
0.7995698484227776
0.7949098730028676
0.7949098730028676
0.7949098730028676
0.7949098730028676
0.7949098730028676
0.7974190905366653
0.7929127406800491
0.7929127406800491
0.7929127406800491
0.7929127406800491
0.7929127406800491
0.7953707496927489
0.7933736173699304
0.7933736173699304
0.7933736173699304
0.7933736173699304
0.7933736173699304
0.7933736173699304
0.7973166734944694
0.7939369111020074
0.7939369111020074
0.7939369111020074
0.7975215075788611
0.7971118394100778
0.7979311757476444
0.7988017206063089
0.794756247439574
0.7976751331421549
0.7948586644817698
0.7948586644817698
0.7948586644817698
0.7948586644817698
0.7948586644817698
0.7948586644817698
0.800440393281442
0.7962412945514133
0.7962412945514133
0.7962412945514133
0.7962412945514133
0.7962412945514133
0.7988529291274068
0.7949610815239656
0.7949610815239656
0.7949610815239656
0.7949610815239656
0.7949610815239656
0.7949610815239656
0.7940393281442032
0.7940393281442032
0.7940393281442032
0.7940393281442032
0.7940393281442032
0.7940393281442032
0.798136009832036
0.7972654649733716
0.7972654649733716
0.7972654649733716
0.7972654649733716
0.7972654649733716
0.7985968865219173
0.7957804178615322
0.7957804178615322
0.7957804178615322
0.7957804178615322
0.7957804178615322
0.7957804178615322
0.7997234739860712
0.7955243752560426
0.7955243752560426
0.7955243752560426
0.7996722654649734
0.7980848013109382
0.7980848013109382
0.7980848013109382
0.7980848013109382
0.7980848013109382
0.7975215075788611
0.7966509627201966
0.7966509627201966
0.7966509627201966
0.7966509627201966
0.7966509627201966
0.7966509627201966
0.8017718148299877
0.795882834903728
0.795882834903728
0.795882834903728
0.795882834903728
0.795882834903728
0.799313805817288
0.7977775501843507
0.7977775501843507
0.7977775501843507
0.7977775501843507
0.7977775501843507
0.7977775501843507
0.7961900860303155
0.7961900860303155
0.7961900860303155
0.7961900860303155
0.7961900860303155
0.7961900860303155
0.8001331421548545
0.798187218353134
0.798187218353134
0.798187218353134
0.798187218353134
0.798187218353134
0.7980848013109382
0.798187218353134
0.798187218353134
0.798187218353134
0.798187218353134
0.7980335927898402
0.7980335927898402
0.7980335927898402
0.7980335927898402
0.7980335927898402
0.7980335927898402
0.8008500614502253
0.7998258910282671
0.7998258910282671
0.7998258910282671
0.7998258910282671
0.7998258910282671
0.7999795165915609
0.7983920524375256
0.7983920524375256
0.7983920524375256
0.7983920524375256
0.7983920524375256
0.7983920524375256
0.8014645637034002
0.7961900860303155
0.7961900860303155
0.7961900860303155
0.7961900860303155
0.7961900860303155
0.7996722654649734
0.7986993035641131
0.7986993035641131
0.7986993035641131
0.7986993035641131
0.7986993035641131
0.7994162228594838
0.7970606308889799
0.7970606308889799
0.7970606308889799
0.7970606308889799
0.7970606308889799
0.7970606308889799
0.8008500614502253
0.8010036870135191
0.8010036870135191
0.8010036870135191
0.8015157722244981
0.7982384268742319
0.7982384268742319
0.7982384268742319
0.7982384268742319
0.7982384268742319
0.8000307251126587
0.7971118394100778
0.7971118394100778
0.7971118394100778
0.7971118394100778
0.7971118394100778
0.7971118394100778
0.8017206063088897
0.7995698484227776
0.7995698484227776
0.7995698484227776
0.7995698484227776
0.7995698484227776
0.8012597296190086
0.7974190905366653
0.7974190905366653
0.7974190905366653
0.7974190905366653
0.7974190905366653
0.7974190905366653
0.7974190905366653
0.7953707496927489
0.7953707496927489
0.7953707496927489
0.7953707496927489
0.7953707496927489
0.8016693977877919
0.7973166734944694
0.7973166734944694
0.7973166734944694
0.7973166734944694
0.7973166734944694
0.7998258910282671
0.7975215075788611
0.7975215075788611
0.7975215075788611
0.7975215075788611
0.7975215075788611
0.7975215075788611
0.8012597296190086
0.8015157722244981
0.8013109381401066
0.8006452273658337
0.7992113887750921
0.800440393281442
0.7980335927898402
0.7988529291274068
0.7988529291274068
0.7988529291274068
0.7988529291274068
0.7988529291274068
0.7988529291274068
0.7975727160999591
0.7975727160999591
0.7975727160999591
0.7975727160999591
0.7975727160999591
0.7975727160999591
0.7954731667349447
0.798136009832036
0.798136009832036
0.798136009832036
0.798136009832036
0.798136009832036
0.7934248258910283
0.7985968865219173
0.7985968865219173
0.7985968865219173
0.7985968865219173
0.7985968865219173
0.7985968865219173
0.7953195411716509
0.7997234739860712
0.7997234739860712
0.7997234739860712
0.7997234739860712
0.7997234739860712
0.7926054895534617
0.7996722654649734
0.7996722654649734
0.7996722654649734
0.7996722654649734
0.7996722654649734
0.7918885702580909
0.7975215075788611
0.7975215075788611
0.7975215075788611
0.7975215075788611
0.8017718148299877
0.8017718148299877
0.8017718148299877
0.8017718148299877
0.8017718148299877
0.8017718148299877
0.7916325276526014
0.799313805817288
0.799313805817288
0.799313805817288
0.799313805817288
0.799313805817288
0.7898914379352724
0.8001843506759525
0.8001843506759525
0.8001843506759525
0.8001843506759525
0.8001843506759525
0.8001843506759525
0.7917349446947972
0.8001331421548545
0.8001331421548545
0.8001331421548545
0.8001331421548545
0.8001331421548545
0.7908131913150348
0.7980848013109382
0.7980848013109382
0.7980848013109382
0.7980848013109382
0.7980848013109382
0.7980848013109382
0.7980848013109382
0.8012597296190086
0.8012597296190086
0.8012597296190086
0.8012597296190086
0.8012597296190086
0.7927591151167555
0.8008500614502253
0.8008500614502253
0.8008500614502253
0.7931687832855387
0.7999795165915609
0.7999795165915609
0.7999795165915609
0.7999795165915609
0.7999795165915609
0.7922982384268742
0.8014645637034002
0.8014645637034002
0.8014645637034002
0.8014645637034002
0.8014645637034002
0.8014645637034002
0.7943465792707907
0.7996722654649734
0.7996722654649734
0.7996722654649734
0.7996722654649734
0.7996722654649734
0.7931175747644408
0.7994162228594838
0.7994162228594838
0.7994162228594838
0.7994162228594838
0.7994162228594838
0.7994162228594838
0.7965485456780008
0.8008500614502253
0.8008500614502253
0.8008500614502253
0.8008500614502253
0.8008500614502253
0.7950634985661614
0.8015157722244981
0.8015157722244981
0.8015157722244981
0.8015157722244981
0.8015157722244981
0.8015157722244981
0.8000307251126587
0.8000307251126587
0.8000307251126587
0.8000307251126587
0.7951147070872593
0.8017206063088897
0.8017206063088897
0.8017206063088897
0.8017206063088897
0.8017206063088897
0.7956780008193364
0.8012597296190086
0.8012597296190086
0.8012597296190086
0.8012597296190086
0.8012597296190086
0.794705038918476
0.7974190905366653
0.7974190905366653
0.7974190905366653
0.7974190905366653
0.7974190905366653
0.7974190905366653
0.79583162638263
0.8016693977877919
0.8016693977877919
0.8016693977877919
0.8016693977877919
0.8016693977877919
0.7946026218762802
0.7998258910282671
0.7998258910282671
0.7969582138467841
0.8012597296190086
0.8012597296190086
0.8012597296190086
0.8012597296190086
0.8012597296190086
0.8012597296190086
0.7982384268742319
0.8015157722244981
0.8015157722244981
0.8015157722244981
0.8015157722244981
0.8015157722244981
0.7972142564522736
0.8013109381401066
0.8013109381401066
0.7962925030725113
0.7969070053256861
0.7972142564522736
0.7969070053256861
0.7961900860303155
0.7953707496927489
0.7954731667349447
0.7954731667349447
0.7954731667349447
0.7954731667349447
0.7954731667349447
0.7954731667349447
0.7973166734944694
0.7934248258910283
0.7934248258910283
0.7934248258910283
0.7934248258910283
0.7934248258910283
0.7971118394100778
0.7953195411716509
0.7953195411716509
0.7953195411716509
0.7953195411716509
0.7953195411716509
0.7953195411716509
0.7986480950430151
0.7926054895534617
0.7926054895534617
0.7926054895534617
0.7926054895534617
0.7926054895534617
0.7971118394100778
0.7918885702580909
0.7918885702580909
0.7918885702580909
0.7918885702580909
0.7918885702580909
0.7948586644817698
0.7931687832855387
0.7931687832855387
0.7931687832855387
0.7931687832855387
0.7931687832855387
0.7931687832855387
0.7963949201147071
0.7916325276526014
0.7916325276526014
0.7916325276526014
0.7967021712412945
0.7898914379352724
0.7898914379352724
0.7898914379352724
0.7898914379352724
0.7898914379352724
0.7950634985661614
0.7917349446947972
0.7917349446947972
0.7917349446947972
0.7917349446947972
0.7917349446947972
0.7917349446947972
0.7982896353953298
0.7908131913150348
0.7908131913150348
0.7908131913150348
0.7908131913150348
0.7908131913150348
0.7969070053256861
0.7980848013109382
0.7980848013109382
0.7980848013109382
0.7980848013109382
0.7980848013109382
0.7980848013109382
0.7980848013109382
0.7927591151167555
0.7927591151167555
0.7927591151167555
0.7927591151167555
0.7927591151167555
0.7976239246210569
0.7931687832855387
0.7931687832855387
0.7931687832855387
0.7931687832855387
0.7931687832855387
0.7955243752560426
0.7922982384268742
0.7922982384268742
0.7922982384268742
0.7922982384268742
0.7922982384268742
0.7943465792707907
0.7943465792707907
0.7943465792707907
0.7943465792707907
0.7943465792707907
0.7974702990577632
0.7931175747644408
0.7931175747644408
0.7931175747644408
0.7931175747644408
0.7931175747644408
0.7953707496927489
0.7965485456780008
0.7965485456780008
0.7965485456780008
0.7965485456780008
0.7965485456780008
0.7965485456780008
0.7976751331421549
0.7950634985661614
0.7950634985661614
0.7950634985661614
0.7950634985661614
0.7950634985661614
0.7971118394100778
0.7951659156083573
0.7951659156083573
0.7951659156083573
0.7951659156083573
0.7951659156083573
0.7951659156083573
0.7991089717328963
0.7951147070872593
0.7951147070872593
0.7951147070872593
0.7951147070872593
0.7951147070872593
0.7975727160999591
0.7956780008193364
0.7956780008193364
0.7956780008193364
0.7956780008193364
0.794705038918476
0.794705038918476
0.794705038918476
0.794705038918476
0.794705038918476
0.794705038918476
0.794705038918476
0.79583162638263
0.79583162638263
0.79583162638263
0.79583162638263
0.79583162638263
0.7978287587054486
0.7946026218762802
0.7946026218762802
0.7946026218762802
0.7946026218762802
0.7946026218762802
0.7965485456780008
0.7969582138467841
0.7969582138467841
0.7969582138467841
0.7969582138467841
0.7969582138467841
0.7969582138467841
0.7986480950430151
0.7982384268742319
0.7982384268742319
0.7982384268742319
0.7982384268742319
0.7982384268742319
0.7982384268742319
0.7972142564522736
0.7972142564522736
0.7972142564522736
0.7972142564522736
0.7972142564522736
0.7972142564522736
0.8009012699713233
0.7962925030725113
0.7962925030725113
0.7962925030725113
0.7962925030725113
0.7962925030725113
0.7982896353953298
0.7985456780008193
0.7971630479311758
0.7973166734944694
0.7978799672265465
0.7973166734944694
0.7973166734944694
0.7973166734944694
0.7973166734944694
0.7968045882834903
0.7971118394100778
0.7971118394100778
0.7971118394100778
0.7971118394100778
0.7971118394100778
0.7971118394100778
0.7988529291274068
0.7986480950430151
0.7986480950430151
0.7986480950430151
0.7986480950430151
0.7986480950430151
0.7980335927898402
0.7971118394100778
0.7971118394100778
0.7971118394100778
0.7971118394100778
0.7971118394100778
0.7971118394100778
0.7948586644817698
0.7948586644817698
0.7948586644817698
0.7948586644817698
0.7948586644817698
0.7948586644817698
0.7973166734944694
0.7963949201147071
0.7963949201147071
0.7963949201147071
0.7963949201147071
0.7963949201147071
0.7957292093404342
0.7967021712412945
0.7967021712412945
0.7967021712412945
0.7961388775092175
0.7950634985661614
0.7950634985661614
0.7950634985661614
0.7950634985661614
0.7950634985661614
0.7950634985661614
0.7971630479311758
0.7982896353953298
0.7982896353953298
0.7982896353953298
0.7982896353953298
0.7982896353953298
0.7969582138467841
0.7969070053256861
0.7969070053256861
0.7969070053256861
0.7969070053256861
0.7969070053256861
0.7969070053256861
0.7999283080704629
0.7980848013109382
0.7980848013109382
0.7980848013109382
0.7980848013109382
0.7980848013109382
0.7984432609586235
0.7976239246210569
0.7976239246210569
0.7976239246210569
0.7976239246210569
0.7976239246210569
0.7976239246210569
0.7955243752560426
0.7955243752560426
0.7955243752560426
0.7955243752560426
0.7955243752560426
0.7955243752560426
0.798187218353134
0.7922982384268742
0.7922982384268742
0.7922982384268742
0.7969582138467841
0.7974702990577632
0.7974702990577632
0.7974702990577632
0.7974702990577632
0.7974702990577632
0.7974702990577632
0.7953707496927489
0.7953707496927489
0.7953707496927489
0.7953707496927489
0.7953707496927489
0.7953707496927489
0.7948074559606718
0.7976751331421549
0.7976751331421549
0.7976751331421549
0.7976751331421549
0.7976751331421549
0.7912740680049161
0.7971118394100778
0.7971118394100778
0.7971118394100778
0.7971118394100778
0.7971118394100778
0.7971118394100778
0.7931687832855387
0.7991089717328963
0.7991089717328963
0.7991089717328963
0.7991089717328963
0.7991089717328963
0.7902498975829578
0.7975727160999591
0.7975727160999591
0.7975727160999591
0.7975727160999591
0.7975727160999591
0.7975727160999591
0.7975727160999591
0.7975727160999591
0.7975727160999591
0.7975727160999591
0.7975727160999591
0.7975727160999591
0.7894817697664891
0.794705038918476
0.794705038918476
0.794705038918476
0.7898402294141745
0.7978287587054486
0.7978287587054486
0.7978287587054486
0.7978287587054486
0.7978287587054486
0.7978287587054486
0.7965485456780008
0.7965485456780008
0.7965485456780008
0.7965485456780008
0.7965485456780008
0.7965485456780008
0.7905571487095453
0.7986480950430151
0.7986480950430151
0.7986480950430151
0.7986480950430151
0.7986480950430151
0.7889184760344121
0.7982384268742319
0.7982384268742319
0.7982384268742319
0.7982384268742319
0.7982384268742319
0.7982384268742319
0.7921446128635805
0.8009012699713233
0.8009012699713233
0.8009012699713233
0.8009012699713233
0.8009012699713233
0.7905571487095453
0.7982896353953298
0.7982896353953298
0.7982896353953298
0.7982896353953298
0.7982896353953298
0.7982896353953298
0.7985456780008193
0.7915301106104056
0.7912740680049161
0.7921446128635805
0.7898914379352724
0.7968045882834903
0.7968045882834903
0.7968045882834903
0.7968045882834903
0.7968045882834903
0.7968045882834903
0.793015157722245
0.7988529291274068
0.7988529291274068
0.7988529291274068
0.7988529291274068
0.7988529291274068
0.7927079065956575
0.7980335927898402
0.7980335927898402
0.7980335927898402
0.7980335927898402
0.7980335927898402
0.7980335927898402
0.7955243752560426
0.7971630479311758
0.7971630479311758
0.7971630479311758
0.7971630479311758
0.7971630479311758
0.7945514133551823
0.7973166734944694
0.7973166734944694
0.7973166734944694
0.7973166734944694
0.7973166734944694
0.7973166734944694
0.7957292093404342
0.7957292093404342
0.7957292093404342
0.7957292093404342
0.7957292093404342
0.7957292093404342
0.7961388775092175
0.7961388775092175
0.7961388775092175
0.7961388775092175
0.7959340434248259
0.7971630479311758
0.7971630479311758
0.7971630479311758
0.7971630479311758
0.7971630479311758
0.7940905366653012
0.7969582138467841
0.7969582138467841
0.7969582138467841
0.7969582138467841
0.7969582138467841
0.7969582138467841
0.7957804178615322
0.7999283080704629
0.7999283080704629
0.7999283080704629
0.7999283080704629
0.7999283080704629
0.7951147070872593
0.7984432609586235
0.7984432609586235
0.7984432609586235
0.7984432609586235
0.7984432609586235
0.7984432609586235
0.798187218353134
0.798187218353134
0.798187218353134
0.798187218353134
0.798187218353134
0.798187218353134
0.795882834903728
0.798187218353134
0.798187218353134
0.798187218353134
0.798187218353134
0.798187218353134
0.7939369111020074
0.7969582138467841
0.7969582138467841
0.7969582138467841
0.7969582138467841
0.7965485456780008
0.7954731667349447
0.7954731667349447
0.7954731667349447
0.7954731667349447
0.7954731667349447
0.7967021712412945
0.7948074559606718
0.7948074559606718
0.7948074559606718
0.7948074559606718
0.7948074559606718
0.79583162638263
0.7912740680049161
0.7912740680049161
0.7912740680049161
0.7912740680049161
0.7912740680049161
0.7912740680049161
0.7980848013109382
0.7931687832855387
0.7931687832855387
0.7931687832855387
0.7931687832855387
0.7931687832855387
0.7961900860303155
0.7902498975829578
0.7902498975829578
0.7902498975829578
0.7902498975829578
0.7902498975829578
0.7954731667349447
0.7899938549774682
0.7899938549774682
0.7899938549774682
0.7899938549774682
0.7899938549774682
0.7899938549774682
0.7965997541990987
0.7894817697664891
0.7894817697664891
0.7894817697664891
0.7894817697664891
0.7894817697664891
0.7959340434248259
0.7898402294141745
0.7898402294141745
0.7898402294141745
0.7953707496927489
0.7896353953297829
0.7896353953297829
0.7896353953297829
0.7896353953297829
0.7896353953297829
0.7896353953297829
0.7967021712412945
0.7905571487095453
0.7905571487095453
0.7905571487095453
0.7905571487095453
0.7905571487095453
0.7969070053256861
0.7889184760344121
0.7889184760344121
0.7889184760344121
0.7889184760344121
0.7889184760344121
0.7889184760344121
0.7889184760344121
0.7921446128635805
0.7921446128635805
0.7921446128635805
0.7921446128635805
0.7921446128635805
0.7969582138467841
0.7905571487095453
0.7905571487095453
0.7905571487095453
0.7905571487095453
0.7905571487095453
0.7956780008193364
0.7926566980745596
0.7926566980745596
0.7926566980745596
0.7926566980745596
0.7926566980745596
0.7926566980745596
0.7976239246210569
0.7915301106104056
0.7969070053256861
0.7978287587054486
0.7973166734944694
0.7985968865219173
0.793015157722245
0.793015157722245
0.793015157722245
0.793015157722245
0.793015157722245
0.7975727160999591
0.7927079065956575
0.7927079065956575
0.7927079065956575
0.7927079065956575
0.7927079065956575
0.7961388775092175
0.7955243752560426
0.7955243752560426
0.7955243752560426
0.7955243752560426
0.7955243752560426
0.7955243752560426
0.7975215075788611
0.7945514133551823
0.7945514133551823
0.7945514133551823
0.7945514133551823
0.7945514133551823
0.7969070053256861
0.7945002048340843
0.7945002048340843
0.7945002048340843
0.7945002048340843
0.7945002048340843
0.7945002048340843
0.7997234739860712
0.7961388775092175
0.7961388775092175
0.7961388775092175
0.7961388775092175
0.7961388775092175
0.7979823842687424
0.7959340434248259
0.7959340434248259
0.7959340434248259
0.7954219582138468
0.7940905366653012
0.7940905366653012
0.7940905366653012
0.7940905366653012
0.7940905366653012
0.7940905366653012
0.7991089717328963
0.7957804178615322
0.7957804178615322
0.7957804178615322
0.7957804178615322
0.7957804178615322
0.7985456780008193
0.7951147070872593
0.7951147070872593
0.7951147070872593
0.7951147070872593
0.7951147070872593
0.7951147070872593
0.7963949201147071
0.7963949201147071
0.7963949201147071
0.7963949201147071
0.7963949201147071
0.7963949201147071
0.7984432609586235
0.795882834903728
0.795882834903728
0.795882834903728
0.795882834903728
0.795882834903728
0.7983408439164277
0.7939369111020074
0.7939369111020074
0.7939369111020074
0.7939369111020074
0.7939369111020074
0.7939369111020074
0.800440393281442
0.7965485456780008
0.7965485456780008
0.7965485456780008
0.7965485456780008
0.8000819336337567
0.7967021712412945
0.7967021712412945
0.7967021712412945
0.7967021712412945
0.7992625972961901
0.79583162638263
0.79583162638263
0.79583162638263
0.79583162638263
0.79583162638263
0.79583162638263
0.8016181892666939
0.7980848013109382
0.7980848013109382
0.7980848013109382
0.7980848013109382
0.7980848013109382
0.7999795165915609
0.7961900860303155
0.7961900860303155
0.7961900860303155
0.7961900860303155
0.7961900860303155
0.7980848013109382
0.7954731667349447
0.7954731667349447
0.7954731667349447
0.7954731667349447
0.7954731667349447
0.7954731667349447
0.7997746825071692
0.7965997541990987
0.7965997541990987
0.7965997541990987
0.7965997541990987
0.7965997541990987
0.7989041376485048
0.7959340434248259
0.7959340434248259
0.7959340434248259
0.7959340434248259
0.7990065546907006
0.7953707496927489
0.7953707496927489
0.7953707496927489
0.7967021712412945
0.7967021712412945
0.7967021712412945
0.7967021712412945
0.7967021712412945
0.7984944694797215
0.7969070053256861
0.7969070053256861
0.7969070053256861
0.7969070053256861
0.7969070053256861
0.796446128635805
0.7889184760344121
0.7889184760344121
0.7889184760344121
0.7889184760344121
0.7889184760344121
0.7889184760344121
0.7969582138467841
0.7969582138467841
0.7969582138467841
0.7969582138467841
0.7969582138467841
0.7969582138467841
0.793015157722245
0.7956780008193364
0.7956780008193364
0.7956780008193364
0.7956780008193364
0.7956780008193364
0.7888160589922163
0.7976239246210569
0.7976239246210569
0.7976239246210569
0.7976239246210569
0.7976239246210569
0.7976239246210569
0.7906595657517411
0.7969070053256861
0.7969070053256861
0.7969070053256861
0.7969070053256861
0.7969070053256861
0.7894305612453912
0.7903523146251537
0.7892769356820974
0.7891233101188038
0.7896866038508807
0.7961388775092175
0.7961388775092175
0.7961388775092175
0.7961388775092175
0.7961388775092175
0.7975215075788611
0.7975215075788611
0.7975215075788611
0.7975215075788611
0.7975215075788611
0.7975215075788611
0.7903523146251537
0.7969070053256861
0.7969070053256861
0.7969070053256861
0.7969070053256861
0.7969070053256861
0.7886624334289226
0.7997234739860712
0.7997234739860712
0.7997234739860712
0.7997234739860712
0.7997234739860712
0.7997234739860712
0.7911716509627202
0.7979823842687424
0.7979823842687424
0.7979823842687424
0.7979823842687424
0.7979823842687424
0.7915813191315035
0.7954219582138468
0.7954219582138468
0.7954219582138468
0.7954219582138468
0.7954219582138468
0.7954219582138468
0.7942441622285948
0.7991089717328963
0.7991089717328963
0.7991089717328963
0.7919909873002867
0.7985456780008193
0.7985456780008193
0.7985456780008193
0.7985456780008193
0.7985456780008193
0.7932712003277346
0.7974702990577632
0.7974702990577632
0.7974702990577632
0.7974702990577632
0.7974702990577632
0.7974702990577632
0.7984432609586235
0.7984432609586235
0.7984432609586235
0.7984432609586235
0.7984432609586235
0.7984432609586235
0.7928615321589513
0.7983408439164277
0.7983408439164277
0.7983408439164277
0.7983408439164277
0.7983408439164277
0.7908131913150348
0.800440393281442
0.800440393281442
0.800440393281442
0.800440393281442
0.800440393281442
0.800440393281442
0.7938857025809095
0.8000819336337567
0.8000819336337567
0.8000819336337567
0.8000819336337567
0.8000819336337567
0.7934760344121262
0.7992625972961901
0.7992625972961901
0.7992625972961901
0.7992625972961901
0.794141745186399
0.8016181892666939
0.8016181892666939
0.8016181892666939
0.8016181892666939
0.8016181892666939
0.7962412945514133
0.7999795165915609
0.7999795165915609
0.7999795165915609
0.7999795165915609
0.7999795165915609
0.7942441622285948
0.7980848013109382
0.7980848013109382
0.7980848013109382
0.7980848013109382
0.7980848013109382
0.7932199918066366
0.7997746825071692
0.7997746825071692
0.7997746825071692
0.7997746825071692
0.7997746825071692
0.7997746825071692
0.7948074559606718
0.7989041376485048
0.7989041376485048
0.7989041376485048
0.7989041376485048
0.7989041376485048
0.7936296599754199
0.7990065546907006
0.7990065546907006
0.7990065546907006
0.7990065546907006
0.7990065546907006
0.7990065546907006
0.795882834903728
0.7953707496927489
0.7953707496927489
0.7953707496927489
0.7953707496927489
0.7953707496927489
0.794756247439574
0.7984944694797215
0.7984944694797215
0.7984944694797215
0.7942953707496927
0.796446128635805
0.796446128635805
0.796446128635805
0.796446128635805
0.796446128635805
0.796446128635805
0.7960876689881197
0.7955755837771405
0.7955755837771405
0.7955755837771405
0.7955755837771405
0.7955755837771405
0.7954219582138468
0.793015157722245
0.793015157722245
0.793015157722245
0.793015157722245
0.793015157722245
0.793015157722245
0.7888160589922163
0.7888160589922163
0.7888160589922163
0.7888160589922163
0.7888160589922163
0.7888160589922163
0.7952171241294551
0.7906595657517411
0.7906595657517411
0.7906595657517411
0.7906595657517411
0.7906595657517411
0.7934760344121262
0.7894305612453912
0.7894305612453912
0.7894305612453912
0.7894305612453912
0.7894305612453912
0.7894305612453912
0.7963437115936092
0.7903523146251537
0.7952683326505531
0.7951659156083573
0.7948586644817698
0.7943465792707907
0.7914276935682097
0.7926054895534617
0.7903523146251537
0.7903523146251537
0.7903523146251537
0.7903523146251537
0.7903523146251537
0.7903523146251537
0.7959852519459238
0.7886624334289226
0.7886624334289226
0.7886624334289226
0.7886624334289226
0.7886624334289226
0.7954219582138468
0.7911716509627202
0.7911716509627202
0.7911716509627202
0.7911716509627202
0.7911716509627202
0.7911716509627202
0.7969582138467841
0.7915813191315035
0.7915813191315035
0.7915813191315035
0.7915813191315035
0.7915813191315035
0.7954219582138468
0.7942441622285948
0.7942441622285948
0.7942441622285948
0.7942441622285948
0.7942441622285948
0.793578451454322
0.7919909873002867
0.7919909873002867
0.7919909873002867
0.7919909873002867
0.7919909873002867
0.7919909873002867
0.7959340434248259
0.7932712003277346
0.7932712003277346
0.7932712003277346
0.796497337156903
0.7944489963129865
0.7944489963129865
0.7944489963129865
0.7944489963129865
0.7944489963129865
0.7949098730028676
0.7928615321589513
0.7928615321589513
0.7928615321589513
0.7928615321589513
0.7928615321589513
0.7928615321589513
0.7984432609586235
0.7908131913150348
0.7908131913150348
0.7908131913150348
0.7908131913150348
0.7908131913150348
0.7968557968045883
0.7938857025809095
0.7938857025809095
0.7938857025809095
0.7938857025809095
0.7938857025809095
0.7938857025809095
0.7934760344121262
0.7934760344121262
0.7934760344121262
0.7934760344121262
0.7934760344121262
0.7934760344121262
0.7965997541990987
0.794141745186399
0.794141745186399
0.794141745186399
0.794141745186399
0.794141745186399
0.7949098730028676
0.7962412945514133
0.7962412945514133
0.7962412945514133
0.796446128635805
0.7942441622285948
0.7942441622285948
0.7942441622285948
0.7942441622285948
0.7942441622285948
0.7942441622285948
0.797009422367882
0.7932199918066366
0.7932199918066366
0.7932199918066366
0.7932199918066366
0.7932199918066366
0.7973166734944694
0.7948074559606718
0.7948074559606718
0.7948074559606718
0.7948074559606718
0.7948074559606718
0.7948074559606718
0.7992625972961901
0.7936296599754199
0.7936296599754199
0.7936296599754199
0.7936296599754199
0.7936296599754199
0.7976239246210569
0.795882834903728
0.795882834903728
0.795882834903728
0.795882834903728
0.795882834903728
0.7960364604670217
0.794756247439574
0.794756247439574
0.794756247439574
0.794756247439574
0.794756247439574
0.794756247439574
0.7975727160999591
0.7942953707496927
0.7942953707496927
0.7942953707496927
0.7979311757476444
0.7960876689881197
0.7960876689881197
0.7960876689881197
0.7960876689881197
0.7960876689881197
0.7957292093404342
0.7954219582138468
0.7954219582138468
0.7954219582138468
0.7954219582138468
0.7954219582138468
0.7954219582138468
0.7969070053256861
0.793578451454322
0.793578451454322
0.793578451454322
0.793578451454322
0.793578451454322
0.7953707496927489
0.7952171241294551
0.7952171241294551
0.7952171241294551
0.7952171241294551
0.7952171241294551
0.7952171241294551
0.799313805817288
0.7934760344121262
0.7934760344121262
0.7934760344121262
0.7934760344121262
0.7934760344121262
0.7978287587054486
0.7963437115936092
0.7963437115936092
0.7963437115936092
0.7963437115936092
0.7963437115936092
0.7963437115936092
0.7952683326505531
0.7952683326505531
0.7952683326505531
0.7952683326505531
0.7952683326505531
0.798136009832036
0.7996210569438754
0.7990065546907006
0.7990065546907006
0.7986993035641131
0.7959852519459238
0.7959852519459238
0.7954219582138468
0.7954219582138468
0.7954219582138468
0.7954219582138468
0.7954219582138468
0.7954219582138468
0.7986480950430151
0.7969582138467841
0.7969582138467841
0.7969582138467841
0.7969582138467841
0.7969582138467841
0.7968557968045883
0.7954219582138468
0.7954219582138468
0.7954219582138468
0.7954219582138468
0.7954219582138468
0.7954219582138468
0.7988529291274068
0.793578451454322
0.793578451454322
0.793578451454322
0.793578451454322
0.793578451454322
0.7974702990577632
0.7959340434248259
0.7959340434248259
0.7959340434248259
0.7959340434248259
0.7959340434248259
0.7959340434248259
0.8000819336337567
0.796497337156903
0.796497337156903
0.796497337156903
0.796497337156903
0.796497337156903
0.7983408439164277
0.7949098730028676
0.7949098730028676
0.7949098730028676
0.798187218353134
0.7984432609586235
0.7984432609586235
0.7984432609586235
0.7984432609586235
0.7984432609586235
0.7984432609586235
0.7968557968045883
0.7968557968045883
0.7968557968045883
0.7968557968045883
0.7968557968045883
0.7968557968045883
0.7970606308889799
0.7969070053256861
0.7969070053256861
0.7969070053256861
0.7969070053256861
0.7969070053256861
0.7952683326505531
0.7965997541990987
0.7965997541990987
0.7965997541990987
0.7965997541990987
0.7965997541990987
0.7965997541990987
0.7972142564522736
0.7949098730028676
0.7949098730028676
0.7949098730028676
0.7949098730028676
0.7949098730028676
0.7944489963129865
0.796446128635805
0.796446128635805
0.796446128635805
0.796446128635805
0.796446128635805
0.796446128635805
0.797009422367882
0.797009422367882
0.797009422367882
0.797009422367882
0.7935272429332241
0.7973166734944694
0.7973166734944694
0.7973166734944694
0.7973166734944694
0.7973166734944694
0.7898402294141745
0.7992625972961901
0.7992625972961901
0.7992625972961901
0.7992625972961901
0.7992625972961901
0.7880479311757477
0.7976239246210569
0.7976239246210569
0.7976239246210569
0.7976239246210569
0.7976239246210569
0.7976239246210569
0.7891745186399017
0.7960364604670217
0.7960364604670217
0.7960364604670217
0.7960364604670217
0.7960364604670217
0.7879455141335518
0.7975727160999591
0.7975727160999591
0.7975727160999591
0.7975727160999591
0.7975727160999591
0.7975727160999591
0.7911716509627202
0.7979311757476444
0.7979311757476444
0.7979311757476444
0.7979311757476444
0.7979311757476444
0.7893281442031954
0.7957292093404342
0.7957292093404342
0.7957292093404342
0.7957292093404342
0.7969070053256861
0.7969070053256861
0.7969070053256861
0.7969070053256861
0.7969070053256861
0.7969070053256861
0.7953707496927489
0.7953707496927489
0.7953707496927489
0.7953707496927489
0.7953707496927489
0.7953707496927489
0.7915813191315035
0.799313805817288
0.799313805817288
0.799313805817288
0.799313805817288
0.799313805817288
0.7895329782875871
0.7978287587054486
0.7978287587054486
0.7978287587054486
0.7978287587054486
0.7978287587054486
0.7978287587054486
0.790761982793937
0.7974190905366653
0.7974190905366653
0.7974190905366653
0.7974190905366653
0.7974190905366653
0.7901986890618599
0.798136009832036
0.798136009832036
0.798136009832036
0.798136009832036
0.798136009832036
0.798136009832036
0.7934248258910283
0.7996210569438754
0.7996210569438754
0.7996210569438754
0.7996210569438754
0.7921446128635805
0.7914276935682097
0.7921958213846784
0.792451863990168
0.7937832855387137
0.7986480950430151
0.7986480950430151
0.7986480950430151
0.7986480950430151
0.7932712003277346
0.7968557968045883
0.7968557968045883
0.7968557968045883
0.7968557968045883
0.7968557968045883
0.7917349446947972
0.7988529291274068
0.7988529291274068
0.7988529291274068
0.7988529291274068
0.7988529291274068
0.7988529291274068
0.7940393281442032
0.7974702990577632
0.7974702990577632
0.7974702990577632
0.7974702990577632
0.7974702990577632
0.7940905366653012
0.8000819336337567
0.8000819336337567
0.8000819336337567
0.8000819336337567
0.8000819336337567
0.8000819336337567
0.8000819336337567
0.7983408439164277
0.7983408439164277
0.7983408439164277
0.7983408439164277
0.7983408439164277
0.7953195411716509
0.798187218353134
0.798187218353134
0.798187218353134
0.7936808684965179
0.7973678820155674
0.7973678820155674
0.7973678820155674
0.7973678820155674
0.7973678820155674
0.7930663662433429
0.7970606308889799
0.7970606308889799
0.7970606308889799
0.7970606308889799
0.7970606308889799
0.7970606308889799
0.7960876689881197
0.7952683326505531
0.7952683326505531
0.7952683326505531
0.7952683326505531
0.7952683326505531
0.7962925030725113
0.7972142564522736
0.7972142564522736
0.7972142564522736
0.7972142564522736
0.7972142564522736
0.7972142564522736
0.7944489963129865
0.7944489963129865
0.7944489963129865
0.7944489963129865
0.7944489963129865
0.7944489963129865
0.7956267922982384
0.7926054895534617
0.7926054895534617
0.7926054895534617
0.7926054895534617
0.7926054895534617
0.7943977877918885
0.7935272429332241
0.7935272429332241
0.7935272429332241
0.7935272429332241
0.7935272429332241
0.7957804178615322
0.7898402294141745
0.7898402294141745
0.7898402294141745
0.7898402294141745
0.7942953707496927
0.7880479311757477
0.7880479311757477
0.7880479311757477
0.7880479311757477
0.7946538303973781
0.7891745186399017
0.7891745186399017
0.7891745186399017
0.7945514133551823
0.7879455141335518
0.7879455141335518
0.7879455141335518
0.7879455141335518
0.7879455141335518
0.7879455141335518
0.7951659156083573
0.7911716509627202
0.7911716509627202
0.7911716509627202
0.7911716509627202
0.7911716509627202
0.7939369111020074
0.7893281442031954
0.7893281442031954
0.7893281442031954
0.7893281442031954
0.7893281442031954
0.7931687832855387
0.7900450634985662
0.7900450634985662
0.7900450634985662
0.7900450634985662
0.7900450634985662
0.7900450634985662
0.7950122900450635
0.7915301106104056
0.7915301106104056
0.7915301106104056
0.7949098730028676
0.7915813191315035
0.7915813191315035
0.7915813191315035
0.7915813191315035
0.7915813191315035
0.7939369111020074
0.7895329782875871
0.7895329782875871
0.7895329782875871
0.7895329782875871
0.7895329782875871
0.7895329782875871
0.7974190905366653
0.790761982793937
0.790761982793937
0.790761982793937
0.790761982793937
0.790761982793937
0.7965997541990987
0.7901986890618599
0.7901986890618599
0.7901986890618599
0.7901986890618599
0.7901986890618599
0.7901986890618599
0.7934248258910283
0.7934248258910283
0.7934248258910283
0.7934248258910283
0.7934248258910283
0.7934248258910283
0.7965997541990987
0.7921446128635805
0.7921446128635805
0.7921446128635805
0.7921446128635805
0.7921446128635805
0.7961900860303155
0.7914276935682097
0.7914276935682097
0.7914276935682097
0.7914276935682097
0.7914276935682097
0.7914276935682097
0.798187218353134
0.7970606308889799
0.7979823842687424
0.7968557968045883
0.7932712003277346
0.7952171241294551
0.7917349446947972
0.7917349446947972
0.7917349446947972
0.7917349446947972
0.7917349446947972
0.7917349446947972
0.7992625972961901
0.7940393281442032
0.7940393281442032
0.7940393281442032
0.7940393281442032
0.7940393281442032
0.7973166734944694
0.7940905366653012
0.7940905366653012
0.7940905366653012
0.7940905366653012
0.7940905366653012
0.7940905366653012
0.7940905366653012
0.8000819336337567
0.8000819336337567
0.8000819336337567
0.8000819336337567
0.8000819336337567
0.7968557968045883
0.7953195411716509
0.7953195411716509
0.7953195411716509
0.7953195411716509
0.7953195411716509
0.7945514133551823
0.7936808684965179
0.7936808684965179
0.7936808684965179
0.7936808684965179
0.7936808684965179
0.7936808684965179
0.796446128635805
0.7930663662433429
0.7930663662433429
0.7930663662433429
0.7959852519459238
0.7960876689881197
0.7960876689881197
0.7960876689881197
0.7960876689881197
0.7960876689881197
0.7955243752560426
0.7962925030725113
0.7962925030725113
0.7962925030725113
0.7962925030725113
0.7962925030725113
0.7962925030725113
0.7971118394100778
0.7965997541990987
0.7965997541990987
0.7965997541990987
0.7965997541990987
0.7965997541990987
0.7969582138467841
0.7956267922982384
0.7956267922982384
0.7956267922982384
0.7956267922982384
0.7956267922982384
0.7956267922982384
0.7943977877918885
0.7943977877918885
0.7943977877918885
0.7943977877918885
0.7943977877918885
0.7943977877918885
0.7956267922982384
0.7957804178615322
0.7957804178615322
0.7957804178615322
0.7957804178615322
0.7957804178615322
0.794756247439574
0.7942953707496927
0.7942953707496927
0.7942953707496927
0.7942953707496927
0.7946538303973781
0.7946538303973781
0.7946538303973781
0.7946538303973781
0.7946538303973781
0.7946538303973781
0.7972654649733716
0.7945514133551823
0.7945514133551823
0.7945514133551823
0.7945514133551823
0.7945514133551823
0.7961388775092175
0.7951659156083573
0.7951659156083573
0.7951659156083573
0.7951659156083573
0.7951659156083573
0.7951659156083573
0.7984432609586235
0.7939369111020074
0.7939369111020074
0.7939369111020074
0.7939369111020074
0.7939369111020074
0.797009422367882
0.7931687832855387
0.7931687832855387
0.7931687832855387
0.7931687832855387
0.7931687832855387
0.7951659156083573
0.7950122900450635
0.7950122900450635
0.7950122900450635
0.7950122900450635
0.7950122900450635
0.7950122900450635
0.796497337156903
0.7949098730028676
0.7949098730028676
0.7949098730028676
0.7960364604670217
0.7939369111020074
0.7939369111020074
0.7939369111020074
0.7939369111020074
0.7939369111020074
0.794141745186399
0.7974190905366653
0.7974190905366653
0.7974190905366653
0.7974190905366653
0.7974190905366653
0.7974190905366653
0.7967021712412945
0.7965997541990987
0.7965997541990987
0.7965997541990987
0.7965997541990987
0.7965997541990987
0.7955755837771405
0.7956267922982384
0.7956267922982384
0.7956267922982384
0.7956267922982384
0.7956267922982384
0.7956267922982384
0.7965997541990987
0.7965997541990987
0.7965997541990987
0.7965997541990987
0.7965997541990987
0.7965997541990987
0.7950634985661614
0.7961900860303155
0.7961900860303155
0.7961900860303155
0.7961900860303155
0.7961900860303155
0.7938344940598115
0.798187218353134
0.798187218353134
0.798187218353134
0.798187218353134
0.798187218353134
0.798187218353134
0.7957804178615322
0.7942953707496927
0.7932199918066366
0.7911716509627202
0.7876382630069644
0.7992625972961901
0.7992625972961901
0.7992625972961901
0.7992625972961901
0.7992625972961901
0.7992625972961901
0.7875870544858664
0.7973166734944694
0.7973166734944694
0.7973166734944694
0.7973166734944694
0.7973166734944694
0.7857435477263417
0.7940905366653012
0.7940905366653012
0.7940905366653012
0.7940905366653012
0.7940905366653012
0.7940905366653012
0.7870749692748873
0.7968557968045883
0.7968557968045883
0.7968557968045883
0.7968557968045883
0.7968557968045883
0.7846681687832855
0.7945514133551823
0.7945514133551823
0.7945514133551823
0.7945514133551823
0.7945514133551823
0.7945514133551823
0.796446128635805
0.796446128635805
0.796446128635805
0.796446128635805
0.796446128635805
0.796446128635805
0.7833879557558378
0.7959852519459238
0.7959852519459238
0.7959852519459238
0.7836439983613274
0.7955243752560426
0.7955243752560426
0.7955243752560426
0.7955243752560426
0.7955243752560426
0.7814932404752151
0.7971118394100778
0.7971118394100778
0.7971118394100778
0.7971118394100778
0.7971118394100778
0.7971118394100778
0.7831831216714461
0.7969582138467841
0.7969582138467841
0.7969582138467841
0.7969582138467841
0.7969582138467841
0.7832343301925441
0.796446128635805
0.796446128635805
0.796446128635805
0.796446128635805
0.796446128635805
0.796446128635805
0.796446128635805
0.7956267922982384
0.7956267922982384
0.7956267922982384
0.7956267922982384
0.7956267922982384
0.784412126177796
0.794756247439574
0.794756247439574
0.794756247439574
0.794756247439574
0.794756247439574
0.7830807046292503
0.7976751331421549
0.7976751331421549
0.7976751331421549
0.7870749692748873
0.7972654649733716
0.7972654649733716
0.7972654649733716
0.7972654649733716
0.7972654649733716
0.7972654649733716
0.7856411306841459
0.7961388775092175
0.7961388775092175
0.7961388775092175
0.7961388775092175
0.7961388775092175
0.7853850880786563
0.7984432609586235
0.7984432609586235
0.7984432609586235
0.7984432609586235
0.7984432609586235
0.7984432609586235
0.7879967226546497
0.797009422367882
0.797009422367882
0.797009422367882
0.797009422367882
0.797009422367882
0.7856411306841459
0.7951659156083573
0.7951659156083573
0.7951659156083573
0.7951659156083573
0.7951659156083573
0.7951659156083573
0.796497337156903
0.796497337156903
0.796497337156903
0.796497337156903
0.796497337156903
0.796497337156903
0.7865628840639083
0.7960364604670217
0.7960364604670217
0.7960364604670217
0.7873822204014748
0.794141745186399
0.794141745186399
0.794141745186399
0.794141745186399
0.794141745186399
0.7857435477263417
0.7967021712412945
0.7967021712412945
0.7967021712412945
0.7967021712412945
0.7967021712412945
0.7967021712412945
0.7872285948381811
0.7955755837771405
0.7955755837771405
0.7955755837771405
0.7955755837771405
0.7955755837771405
0.7875870544858664
0.7972654649733716
0.7972654649733716
0.7972654649733716
0.7972654649733716
0.7972654649733716
0.7972654649733716
0.7903523146251537
0.7950634985661614
0.7950634985661614
0.7950634985661614
0.7950634985661614
0.7950634985661614
0.7889696845555101
0.7938344940598115
0.7938344940598115
0.7938344940598115
0.7938344940598115
0.7938344940598115
0.7938344940598115
0.7957804178615322
0.7957804178615322
0.7957804178615322
0.7957804178615322
0.7957804178615322
0.7957804178615322
0.7904035231462515
0.790710774272839
0.7909156083572306
0.7903011061040557
0.7876382630069644
0.7910692339205244
0.7875870544858664
0.7875870544858664
0.7875870544858664
0.7875870544858664
0.7875870544858664
0.7904547316673495
0.7857435477263417
0.7857435477263417
0.7857435477263417
0.7857435477263417
0.7857435477263417
0.7857435477263417
0.7870749692748873
0.7870749692748873
0.7870749692748873
0.7870749692748873
0.7870749692748873
0.7870749692748873
0.7897890208930766
0.7846681687832855
0.7846681687832855
0.7846681687832855
0.7846681687832855
0.7846681687832855
0.7874846374436706
0.7840536665301107
0.7840536665301107
0.7840536665301107
0.7840536665301107
0.7840536665301107
0.7840536665301107
0.7898914379352724
0.7833879557558378
0.7833879557558378
0.7833879557558378
0.7833879557558378
0.7833879557558378
0.7888672675133143
0.7836439983613274
0.7836439983613274
0.7836439983613274
0.7883551823023351
0.7814932404752151
0.7814932404752151
0.7814932404752151
0.7814932404752151
0.7814932404752151
0.7814932404752151
0.7899426464563704
0.7831831216714461
0.7831831216714461
0.7831831216714461
0.7831831216714461
0.7831831216714461
0.790761982793937
0.7832343301925441
0.7832343301925441
0.7832343301925441
0.7832343301925441
0.7832343301925441
0.7832343301925441
0.7923494469479722
0.796446128635805
0.796446128635805
0.796446128635805
0.796446128635805
0.796446128635805
0.7916325276526014
0.784412126177796
0.784412126177796
0.784412126177796
0.784412126177796
0.784412126177796
0.784412126177796
0.7830807046292503
0.7830807046292503
0.7830807046292503
0.7830807046292503
0.7830807046292503
0.7830807046292503
0.7919909873002867
0.7870749692748873
0.7870749692748873
0.7870749692748873
0.7910692339205244
0.7856411306841459
0.7856411306841459
0.7856411306841459
0.7856411306841459
0.7856411306841459
0.7856411306841459
0.7853850880786563
0.7853850880786563
0.7853850880786563
0.7853850880786563
0.7853850880786563
0.7853850880786563
0.7930663662433429
0.7879967226546497
0.7879967226546497
0.7879967226546497
0.7879967226546497
0.7879967226546497
0.7918885702580909
0.7856411306841459
0.7856411306841459
0.7856411306841459
0.7856411306841459
0.7856411306841459
0.7856411306841459
0.7941929537074969
0.7853338795575584
0.7853338795575584
0.7853338795575584
0.7853338795575584
0.7853338795575584
0.7935272429332241
0.7865628840639083
0.7865628840639083
0.7865628840639083
0.7865628840639083
0.7865628840639083
0.7865628840639083
0.7873822204014748
0.7873822204014748
0.7873822204014748
0.7873822204014748
0.7929127406800491
0.7857435477263417
0.7857435477263417
0.7857435477263417
0.7857435477263417
0.7857435477263417
0.7937320770176157
0.7872285948381811
0.7872285948381811
0.7872285948381811
0.7872285948381811
0.7872285948381811
0.7872285948381811
0.7875870544858664
0.7875870544858664
0.7875870544858664
0.7875870544858664
0.7875870544858664
0.7875870544858664
0.7942441622285948
0.7903523146251537
0.7903523146251537
0.7903523146251537
0.7903523146251537
0.7903523146251537
0.7925030725112658
0.7889696845555101
0.7889696845555101
0.7889696845555101
0.7889696845555101
0.7889696845555101
0.7889696845555101
0.7952171241294551
0.7899938549774682
0.7899938549774682
0.7899938549774682
0.7899938549774682
0.7899938549774682
0.7938857025809095
0.7904035231462515
0.7904035231462515
0.7904035231462515
0.7904035231462515
0.7904035231462515
0.7904035231462515
0.7904035231462515
0.7933736173699304
0.7938344940598115
0.7943977877918885
0.7942441622285948
0.7904547316673495
0.7904547316673495
0.7904547316673495
0.7939881196231053
0.7903011061040557
0.7903011061040557
0.7903011061040557
0.7903011061040557
0.7903011061040557
0.7919909873002867
0.7897890208930766
0.7897890208930766
0.7897890208930766
0.7897890208930766
0.7897890208930766
0.7897890208930766
0.7940393281442032
0.7874846374436706
0.7874846374436706
0.7874846374436706
0.7874846374436706
0.7874846374436706
0.7927591151167555
0.7898914379352724
0.7898914379352724
0.7898914379352724
0.7898914379352724
0.7898914379352724
0.7898914379352724
0.7898914379352724
0.7888672675133143
0.7888672675133143
0.7888672675133143
0.7888672675133143
0.7888672675133143
0.7936808684965179
0.7883551823023351
0.7883551823023351
0.7883551823023351
0.7932199918066366
0.7899426464563704
0.7899426464563704
0.7899426464563704
0.7899426464563704
0.7899426464563704
0.7899426464563704
0.790761982793937
0.790761982793937
0.790761982793937
0.790761982793937
0.790761982793937
0.790761982793937
0.794141745186399
0.7923494469479722
0.7923494469479722
0.7923494469479722
0.7923494469479722
0.7923494469479722
0.7920934043424825
0.7916325276526014
0.7916325276526014
0.7916325276526014
0.7916325276526014
0.7941929537074969
0.7919397787791889
0.7919397787791889
0.7919397787791889
0.7919397787791889
0.7961900860303155
0.7919909873002867
0.7919909873002867
0.7919909873002867
0.7919909873002867
0.7919909873002867
0.7935272429332241
0.7910692339205244
0.7910692339205244
0.7910692339205244
0.7910692339205244
0.7910692339205244
0.7910692339205244
0.7921958213846784
0.7921958213846784
0.7921958213846784
0.7921958213846784
0.7928615321589513
0.7930663662433429
0.7930663662433429
0.7930663662433429
0.7930663662433429
0.7930663662433429
0.7934760344121262
0.7918885702580909
0.7918885702580909
0.7918885702580909
0.7918885702580909
0.7918885702580909
0.7914276935682097
0.7941929537074969
0.7941929537074969
0.7941929537074969
0.7941929537074969
0.7941929537074969
0.7941929537074969
0.7921958213846784
0.7935272429332241
0.7935272429332241
0.7935272429332241
0.7935272429332241
0.7935272429332241
0.7913252765260139
0.7944489963129865
0.7944489963129865
0.7944489963129865
0.7944489963129865
0.7944489963129865
0.7944489963129865
0.7926054895534617
0.7929127406800491
0.7929127406800491
0.7929127406800491
0.7929127406800491
0.7929127406800491
0.7912228594838181
0.7937320770176157
0.7937320770176157
0.7937320770176157
0.7937320770176157
0.790147480540762
0.7934760344121262
0.7934760344121262
0.7934760344121262
0.7934760344121262
0.7934760344121262
0.7899938549774682
0.7942441622285948
0.7942441622285948
0.7942441622285948
0.7942441622285948
0.7942441622285948
0.7873310118803769
0.7925030725112658
0.7925030725112658
0.7925030725112658
0.7925030725112658
0.7925030725112658
0.7850266284309709
0.7952171241294551
0.7952171241294551
0.7952171241294551
0.7952171241294551
0.7952171241294551
0.7952171241294551
0.7856923392052437
0.7938857025809095
0.7938857025809095
0.7938857025809095
0.7938857025809095
0.7938857025809095
0.7848217943465793
0.7904035231462515
0.7904035231462515
0.7904035231462515
0.7904035231462515
0.7904035231462515
0.7904035231462515
0.7904035231462515
0.7933736173699304
0.7933736173699304
0.7933736173699304
0.7933736173699304
0.7933736173699304
0.7842585006145023
0.7846681687832855
0.7850778369520688
0.7860507988529292
0.7858971732896354
0.7856411306841459
0.7940393281442032
0.7940393281442032
0.7940393281442032
0.7940393281442032
0.7940393281442032
0.7846169602621876
0.7927591151167555
0.7927591151167555
0.7927591151167555
0.7927591151167555
0.7927591151167555
0.7927591151167555
0.7870237607537894
0.7898914379352724
0.7898914379352724
0.7898914379352724
0.7898914379352724
0.7898914379352724
0.7859995903318312
0.7936808684965179
0.7936808684965179
0.7936808684965179
0.7936808684965179
0.7936808684965179
0.7936808684965179
0.7872798033592789
0.7932199918066366
0.7932199918066366
0.7932199918066366
0.7932199918066366
0.7932199918066366
0.7859995903318312
0.7928103236378533
0.7928103236378533
0.7928103236378533
0.7928103236378533
0.7928103236378533
0.7928103236378533
0.794141745186399
0.794141745186399
0.794141745186399
0.794141745186399
0.7888672675133143
0.7920934043424825
0.7920934043424825
0.7920934043424825
0.7920934043424825
0.7920934043424825
0.7852314625153626
0.7941929537074969
0.7941929537074969
0.7941929537074969
0.7941929537074969
0.7941929537074969
0.7941929537074969
0.7961900860303155
0.7961900860303155
0.7961900860303155
0.7961900860303155
0.7961900860303155
0.7961900860303155
0.7869725522326915
0.7935272429332241
0.7935272429332241
0.7935272429332241
0.7935272429332241
0.7935272429332241
0.7857947562474396
0.7935272429332241
0.7935272429332241
0.7935272429332241
0.7935272429332241
0.7935272429332241
0.7935272429332241
0.7886624334289226
0.7928615321589513
0.7928615321589513
0.7928615321589513
0.7928615321589513
0.7928615321589513
0.7875870544858664
0.7934760344121262
0.7934760344121262
0.7934760344121262
0.7873822204014748
0.7914276935682097
0.7914276935682097
0.7914276935682097
0.7914276935682097
0.7914276935682097
0.7914276935682097
0.7898914379352724
0.7921958213846784
0.7921958213846784
0.7921958213846784
0.7921958213846784
0.7921958213846784
0.7878943056124539
0.7913252765260139
0.7913252765260139
0.7913252765260139
0.7913252765260139
0.7913252765260139
0.7872285948381811
0.7926054895534617
0.7926054895534617
0.7926054895534617
0.7926054895534617
0.7926054895534617
0.7926054895534617
0.7870237607537894
0.7912228594838181
0.7912228594838181
0.7912228594838181
0.7912228594838181
0.7912228594838181
0.7868701351904956
0.790147480540762
0.790147480540762
0.790147480540762
0.790147480540762
0.790147480540762
0.790147480540762
0.7888160589922163
0.7899938549774682
0.7899938549774682
0.7899938549774682
0.7899938549774682
0.7875870544858664
0.7873310118803769
0.7873310118803769
0.7873310118803769
0.7873310118803769
0.7871773863170831
0.7850266284309709
0.7850266284309709
0.7850266284309709
0.7850266284309709
0.7850266284309709
