4.00782013685239e-1,0.0
3.91006842619746e-1,7.836e3
3.82209188660802e-1,1.3034e4
3.72434017595308e-1,7.134e3
3.63636363636364e-1,6.005e3
3.55816226783969e-1,4.71e3
3.48973607038123e-1,2.217e3
3.44086021505376e-1,1.754e3
3.39198435972629e-1,8.5e1
3.35288367546432e-1,4.88e2
3.30400782013685e-1,1.287e3
3.25513196480938e-1,1.856e3
3.20625610948192e-1,2.245e3
3.16715542521994e-1,2.659e3
3.11827956989247e-1,2.872e3
3.0791788856305e-1,3.046e3
3.04007820136852e-1,3.124e3
3.01075268817204e-1,3.153e3
2.98142717497556e-1,3.111e3
2.96187683284457e-1,3.011e3
2.95210166177908e-1,2.874e3
2.93255131964809e-1,2.697e3
2.91300097751711e-1,2.479e3
2.89345063538612e-1,2.265e3
2.85434995112414e-1,2.078e3
2.82502443792766e-1,1.879e3
2.79569892473118e-1,1.725e3
2.7761485826002e-1,1.586e3
2.75659824046921e-1,1.413e3
2.73704789833822e-1,1.242e3
2.71749755620723e-1,1.064e3
2.70772238514174e-1,9.04e2
2.69794721407625e-1,7.6e2
2.69794721407625e-1,6.05e2
2.68817204301075e-1,4.55e2
2.67839687194526e-1,3.1e2
2.66862170087977e-1,1.87e2
2.65884652981427e-1,1.04e2
2.63929618768328e-1,2.7e1
2.62952101661779e-1,3.8e1
2.6099706744868e-1,6.8e1
2.6099706744868e-1,9.8e1
2.60019550342131e-1,1.22e2
2.60019550342131e-1,1.53e2
2.6099706744868e-1,1.97e2
2.6197458455523e-1,2.18e2
2.6197458455523e-1,2.73e2
2.6197458455523e-1,3.27e2
2.62952101661779e-1,3.34e2
2.6197458455523e-1,3.28e2
2.6197458455523e-1,3.37e2
2.6197458455523e-1,3.18e2
2.6099706744868e-1,2.74e2
2.6099706744868e-1,2.66e2
2.6099706744868e-1,2.25e2
2.60019550342131e-1,1.87e2
2.60019550342131e-1,1.81e2
2.6099706744868e-1,1.38e2
2.6099706744868e-1,1.07e2
2.63929618768328e-1,1.21e2
2.69794721407625e-1,1.15e2
2.80547409579668e-1,1.44e2
2.97165200391007e-1,2.79e2
3.21603128054741e-1,5.04e2
3.5386119257087e-1,8.58e2
3.92961876832845e-1,1.36e3
4.39882697947214e-1,1.996e3
4.90713587487781e-1,2.715e3
5.43499511241447e-1,3.488e3
5.88465298142718e-1,4.252e3
6.26588465298143e-1,4.878e3
6.65689149560117e-1,5.195e3
6.98924731182796e-1,5.115e3
7.25317693059629e-1,4.931e3
7.42913000977517e-1,4.647e3
7.52688172043011e-1,4.075e3
7.55620723362659e-1,3.308e3
7.52688172043011e-1,2.36e3
7.45845552297165e-1,1.311e3
7.36070381231672e-1,2.39e2
7.26295210166178e-1,8.09e2
7.17497556207234e-1,1.759e3
7.09677419354839e-1,2.563e3
7.03812316715543e-1,3.166e3
7.00879765395894e-1,3.595e3
6.99902248289345e-1,3.857e3
7.02834799608993e-1,3.934e3
7.06744868035191e-1,3.871e3
7.12609970674487e-1,3.672e3
7.18475073313783e-1,3.378e3
7.2336265884653e-1,3.055e3
7.26295210166178e-1,2.71e3
7.2336265884653e-1,2.41e3
7.15542521994135e-1,2.18e3
7.0772238514174e-1,2.088e3
6.97947214076246e-1,2.165e3
6.86217008797654e-1,2.235e3
6.72531769305963e-1,2.275e3
6.56891495601173e-1,2.359e3
6.42228739002933e-1,2.447e3
6.27565982404692e-1,2.543e3
6.1485826001955e-1,2.594e3
6.04105571847507e-1,2.568e3
5.95307917888563e-1,2.486e3
5.89442815249267e-1,2.309e3
5.85532746823069e-1,2.071e3
5.82600195503421e-1,1.77e3
5.80645161290323e-1,1.412e3
5.78690127077224e-1,1.065e3
5.75757575757576e-1,7.33e2
5.73802541544477e-1,4.33e2
5.70869990224829e-1,2.03e2
5.66959921798632e-1,4.0
5.62072336265885e-1,1.65e2
5.56207233626588e-1,2.58e2
5.50342130987292e-1,3.03e2
5.42521994134897e-1,3.08e2
5.34701857282502e-1,2.91e2
5.26881720430108e-1,2.42e2
5.19061583577713e-1,1.59e2
5.11241446725318e-1,1.0e2
5.03421309872923e-1,4.5e1
4.94623655913978e-1,7.0
4.86803519061584e-1,4.7e1
4.78005865102639e-1,1.05e2
4.70185728250244e-1,1.49e2
4.62365591397849e-1,1.8e2
4.54545454545455e-1,2.12e2
4.4672531769306e-1,2.13e2
4.39882697947214e-1,2.19e2
4.33040078201369e-1,2.24e2
4.28152492668622e-1,2.03e2
4.23264907135875e-1,1.73e2
4.18377321603128e-1,1.14e2
4.13489736070381e-1,3.1e1
4.09579667644184e-1,2.4e1
4.04692082111437e-1,6.9e1
4.00782013685239e-1,1.27e2
3.96871945259042e-1,1.64e2
3.93939393939394e-1,1.9e2
3.90029325513196e-1,2.3e2
3.87096774193548e-1,2.71e2
3.841642228739e-1,2.95e2
3.81231671554252e-1,3.09e2
3.79276637341153e-1,3.35e2
3.77321603128055e-1,3.46e2
3.75366568914956e-1,3.64e2
3.73411534701857e-1,3.94e2
3.71456500488759e-1,3.99e2
3.6852394916911e-1,4.01e2
3.66568914956012e-1,3.95e2
3.64613880742913e-1,3.61e2
3.61681329423265e-1,3.31e2
3.58748778103617e-1,3.22e2
3.54838709677419e-1,2.81e2
3.51906158357771e-1,2.25e2
3.49951124144673e-1,1.66e2
3.48973607038123e-1,1.09e2
3.47018572825024e-1,1.03e2
3.45063538611926e-1,1.2e2
3.43108504398827e-1,1.22e2
3.41153470185728e-1,1.02e2
3.3822091886608e-1,8.9e1
3.36265884652981e-1,7.6e1
3.33333333333333e-1,4.0e1
3.31378299120235e-1,1.4e1
3.29423264907136e-1,6.0
3.27468230694037e-1,3.0e1
3.25513196480938e-1,2.7e1
3.24535679374389e-1,3.1e1
3.24535679374389e-1,3.9e1
3.2355816226784e-1,2.1e1
3.2258064516129e-1,2.2e1
3.21603128054741e-1,5.0e1
3.21603128054741e-1,4.8e1
3.20625610948192e-1,5.5e1
3.19648093841642e-1,7.5e1
3.17693059628543e-1,8.5e1
3.16715542521994e-1,7.0e1
3.14760508308895e-1,4.3e1
3.12805474095797e-1,2.2e1
3.11827956989247e-1,4.0
3.10850439882698e-1,3.4e1
3.08895405669599e-1,4.2e1
3.069403714565e-1,3.1e1
3.04985337243402e-1,5.3e1
3.05962854349951e-1,8.2e1
3.09872922776149e-1,1.01e2
3.17693059628543e-1,6.3e1
3.32355816226784e-1,7.5e1
3.5386119257087e-1,2.89e2
3.841642228739e-1,6.39e2
4.20332355816227e-1,1.145e3
4.63343108504399e-1,1.783e3
5.02443792766373e-1,2.51e3
5.40566959921799e-1,3.253e3
5.83577712609971e-1,3.834e3
6.25610948191593e-1,4.14e3
6.63734115347019e-1,4.445e3
6.95014662756598e-1,4.701e3
7.18475073313783e-1,4.697e3
7.34115347018573e-1,4.458e3
7.42913000977517e-1,3.946e3
7.44868035190616e-1,3.218e3
7.42913000977517e-1,2.349e3
7.37047898338221e-1,1.377e3
7.30205278592375e-1,3.93e2
7.2238514173998e-1,5.42e2
7.15542521994135e-1,1.384e3
7.10654936461388e-1,2.085e3
7.0772238514174e-1,2.637e3
7.06744868035191e-1,3.006e3
7.0772238514174e-1,3.206e3
7.11632453567937e-1,3.276e3
7.17497556207234e-1,3.224e3
7.24340175953079e-1,3.059e3
7.31182795698925e-1,2.802e3
7.3802541544477e-1,2.514e3
7.41935483870968e-1,2.23e3
7.42913000977517e-1,1.963e3
7.40957966764418e-1,1.769e3
7.36070381231672e-1,1.685e3
7.28250244379277e-1,1.675e3
7.17497556207234e-1,1.73e3
7.02834799608993e-1,1.844e3
6.87194525904203e-1,1.998e3
6.68621700879765e-1,2.209e3
6.50048875855327e-1,2.419e3
6.3147605083089e-1,2.61e3
6.1485826001955e-1,2.78e3
6.0019550342131e-1,2.864e3
5.88465298142718e-1,2.857e3
5.79667644183773e-1,2.747e3
5.72825024437928e-1,2.534e3
5.67937438905181e-1,2.233e3
5.65004887585533e-1,1.875e3
5.63049853372434e-1,1.5e3
5.61094819159335e-1,1.102e3
5.60117302052786e-1,7.16e2
5.57184750733138e-1,3.79e2
5.5425219941349e-1,7.7e1
5.50342130987292e-1,1.55e2
5.45454545454545e-1,3.05e2
5.39589442815249e-1,4.22e2
5.33724340175953e-1,4.75e2
5.26881720430108e-1,4.78e2
5.19061583577713e-1,4.67e2
5.10263929618768e-1,4.29e2
5.00488758553275e-1,3.57e2
4.90713587487781e-1,2.6e2
4.80938416422287e-1,1.46e2
4.70185728250244e-1,3.3e1
4.60410557184751e-1,5.7e1
4.51612903225806e-1,1.53e2
4.42815249266862e-1,2.32e2
4.34017595307918e-1,2.52e2
4.27174975562072e-1,2.61e2
4.21309872922776e-1,2.72e2
4.1544477028348e-1,2.38e2
4.09579667644184e-1,1.57e2
4.04692082111437e-1,8.7e1
3.9980449657869e-1,3.2e1
3.94916911045943e-1,3.5e1
3.90029325513196e-1,1.02e2
3.86119257086999e-1,1.49e2
3.82209188660802e-1,1.87e2
3.77321603128055e-1,2.34e2
3.73411534701857e-1,2.83e2
3.71456500488759e-1,2.94e2
3.6852394916911e-1,3.0e2
3.66568914956012e-1,3.62e2
3.63636363636364e-1,4.09e2
3.60703812316716e-1,4.3e2
3.58748778103617e-1,4.52e2
3.55816226783969e-1,4.35e2
3.52883675464321e-1,4.39e2
3.50928641251222e-1,4.35e2
3.47996089931574e-1,3.93e2
3.46041055718475e-1,3.85e2
3.43108504398827e-1,3.63e2
3.41153470185728e-1,3.33e2
3.39198435972629e-1,3.1e2
3.37243401759531e-1,2.77e2
3.35288367546432e-1,2.68e2
3.33333333333333e-1,2.49e2
3.30400782013685e-1,2.24e2
3.28445747800586e-1,2.06e2
3.25513196480938e-1,1.62e2
3.2258064516129e-1,1.28e2
3.20625610948192e-1,9.9e1
3.17693059628543e-1,4.8e1
3.14760508308895e-1,2.9e1
3.11827956989247e-1,1.1e1
3.10850439882698e-1,3.4e1
3.09872922776149e-1,5.8e1
3.0791788856305e-1,4.6e1
3.069403714565e-1,5.0
3.04985337243402e-1,2.0
3.04007820136852e-1,2.0
3.02052785923754e-1,1.3e1
3.01075268817204e-1,9.0
3.00097751710655e-1,1.5e1
2.99120234604106e-1,1.2e1
2.98142717497556e-1,3.0e1
2.97165200391007e-1,4.0e1
2.96187683284457e-1,4.1e1
2.96187683284457e-1,4.8e1
2.96187683284457e-1,4.5e1
2.95210166177908e-1,6.4e1
2.94232649071359e-1,9.1e1
2.93255131964809e-1,8.6e1
2.9227761485826e-1,6.5e1
2.90322580645161e-1,5.3e1
2.89345063538612e-1,3.8e1
2.87390029325513e-1,5.0
2.86412512218964e-1,2.0e1
2.85434995112414e-1,3.8e1
2.85434995112414e-1,5.9e1
2.89345063538612e-1,5.4e1
2.96187683284457e-1,3.6e1
3.0791788856305e-1,6.5e1
3.27468230694037e-1,2.67e2
3.5386119257087e-1,5.4e2
3.88074291300098e-1,9.78e2
4.3010752688172e-1,1.557e3
4.76050830889541e-1,2.227e3
5.23949169110459e-1,2.998e3
5.71847507331378e-1,3.753e3
6.16813294232649e-1,4.383e3
6.56891495601173e-1,4.862e3
6.88172043010753e-1,5.123e3
7.09677419354839e-1,5.121e3
7.2238514173998e-1,4.815e3
7.30205278592375e-1,4.181e3
7.33137829912023e-1,3.312e3
7.32160312805474e-1,2.35e3
7.26295210166178e-1,1.378e3
7.19452590420332e-1,4.07e2
7.11632453567937e-1,5.46e2
7.03812316715543e-1,1.414e3
6.97947214076246e-1,2.131e3
6.94037145650049e-1,2.715e3
6.930596285435e-1,3.127e3
6.94037145650049e-1,3.353e3
6.95014662756598e-1,3.426e3
6.99902248289345e-1,3.359e3
7.06744868035191e-1,3.24e3
7.12609970674487e-1,3.031e3
7.18475073313783e-1,2.704e3
7.21407624633431e-1,2.41e3
7.2336265884653e-1,2.154e3
7.2336265884653e-1,1.949e3
7.18475073313783e-1,1.826e3
7.10654936461388e-1,1.726e3
6.98924731182796e-1,1.742e3
6.84261974584555e-1,1.859e3
6.67644183773216e-1,2.015e3
6.51026392961877e-1,2.231e3
6.32453567937439e-1,2.441e3
6.13880742913001e-1,2.597e3
5.96285434995112e-1,2.723e3
5.80645161290323e-1,2.821e3
5.67937438905181e-1,2.832e3
5.58162267839687e-1,2.747e3
5.51319648093842e-1,2.559e3
5.47409579667644e-1,2.269e3
5.43499511241447e-1,1.911e3
5.40566959921799e-1,1.494e3
5.386119257087e-1,1.092e3
5.35679374389052e-1,7.4e2
5.32746823069404e-1,3.94e2
5.29814271749756e-1,1.11e2
5.24926686217009e-1,1.02e2
5.19061583577713e-1,2.89e2
5.13196480938416e-1,3.98e2
5.05376344086022e-1,4.31e2
4.96578690127077e-1,4.51e2
4.87781036168133e-1,4.23e2
4.78983382209189e-1,3.38e2
4.69208211143695e-1,2.6e2
4.59433040078201e-1,1.93e2
4.50635386119257e-1,1.1e2
4.42815249266862e-1,2.3e1
4.34017595307918e-1,2.7e1
4.24242424242424e-1,3.6e1
4.1544477028348e-1,5.6e1
4.06647116324536e-1,1.13e2
3.98826979472141e-1,1.48e2
3.91006842619746e-1,1.55e2
3.83186705767351e-1,1.53e2
3.76344086021505e-1,1.31e2
3.70478983382209e-1,1.18e2
3.64613880742913e-1,8.9e1
3.60703812316716e-1,2.7e1
3.56793743890518e-1,2.9e1
3.52883675464321e-1,1.09e2
3.47996089931574e-1,2.06e2
3.44086021505376e-1,2.68e2
3.40175953079179e-1,2.99e2
3.36265884652981e-1,3.24e2
3.33333333333333e-1,3.58e2
3.29423264907136e-1,3.74e2
3.26490713587488e-1,3.97e2
3.2355816226784e-1,4.12e2
3.20625610948192e-1,4.07e2
3.18670576735093e-1,4.24e2
3.16715542521994e-1,4.21e2
3.15738025415445e-1,4.29e2
3.13782991202346e-1,4.49e2
3.11827956989247e-1,4.64e2
3.09872922776149e-1,4.71e2
3.069403714565e-1,4.44e2
3.04007820136852e-1,4.22e2
3.02052785923754e-1,3.78e2
3.00097751710655e-1,3.13e2
2.97165200391007e-1,2.84e2
2.94232649071359e-1,2.65e2
2.91300097751711e-1,2.19e2
2.90322580645161e-1,1.63e2
2.88367546432063e-1,1.19e2
2.87390029325513e-1,1.15e2
2.85434995112414e-1,1.21e2
2.83479960899316e-1,1.13e2
2.80547409579668e-1,1.1e2
2.78592375366569e-1,8.3e1
2.7663734115347e-1,4.3e1
2.75659824046921e-1,1.5e1
2.73704789833822e-1,7.0
2.72727272727273e-1,1.4e1
2.70772238514174e-1,1.3e1
2.69794721407625e-1,1.0e1
2.68817204301075e-1,1.0e1
2.68817204301075e-1,6.0
2.68817204301075e-1,2.2e1
2.67839687194526e-1,4.9e1
2.65884652981427e-1,8.2e1
2.63929618768328e-1,8.7e1
2.6099706744868e-1,5.1e1
2.59042033235582e-1,1.4e1
2.56109481915934e-1,3.4e1
2.54154447702835e-1,7.3e1
2.53176930596285e-1,1.01e2
2.54154447702835e-1,1.3e2
2.58064516129032e-1,1.11e2
2.65884652981427e-1,4.7e1
2.79569892473118e-1,8.4e1
3.00097751710655e-1,3.07e2
3.29423264907136e-1,6.42e2
3.66568914956012e-1,1.118e3
4.10557184750733e-1,1.741e3
4.59433040078201e-1,2.49e3
5.11241446725318e-1,3.286e3
5.61094819159335e-1,4.063e3
6.07038123167155e-1,4.753e3
6.47116324535679e-1,5.241e3
6.79374389051808e-1,5.45e3
7.00879765395894e-1,5.382e3
7.12609970674487e-1,5.022e3
7.20430107526882e-1,4.341e3
7.2238514173998e-1,3.389e3
7.18475073313783e-1,2.365e3
7.12609970674487e-1,1.348e3
7.03812316715543e-1,2.73e2
6.95014662756598e-1,7.29e2
6.87194525904203e-1,1.61e3
6.81329423264907e-1,2.378e3
6.7741935483871e-1,2.945e3
6.7741935483871e-1,3.33e3
6.7741935483871e-1,3.545e3
6.79374389051808e-1,3.573e3
6.83284457478006e-1,3.497e3
6.89149560117302e-1,3.367e3
6.95992179863148e-1,3.135e3
7.00879765395894e-1,2.837e3
7.04789833822092e-1,2.513e3
7.05767350928641e-1,2.231e3
7.03812316715543e-1,2.024e3
6.96969696969697e-1,1.874e3
6.87194525904203e-1,1.825e3
6.73509286412512e-1,1.882e3
6.56891495601173e-1,2.02e3
6.40273704789834e-1,2.204e3
6.23655913978495e-1,2.43e3
6.05083088954057e-1,2.614e3
5.86510263929619e-1,2.71e3
5.6891495601173e-1,2.8e3
5.5425219941349e-1,2.863e3
5.41544477028348e-1,2.841e3
5.32746823069404e-1,2.715e3
5.25904203323558e-1,2.492e3
5.21016617790811e-1,2.18e3
5.17106549364614e-1,1.798e3
5.14173998044966e-1,1.406e3
5.12218963831867e-1,1.017e3
5.09286412512219e-1,6.5e2
5.05376344086022e-1,3.09e2
5.00488758553275e-1,2.4e1
4.95601173020528e-1,1.69e2
4.88758553274682e-1,3.03e2
4.80938416422287e-1,3.97e2
4.73118279569892e-1,4.34e2
4.63343108504399e-1,4.07e2
4.54545454545455e-1,3.73e2
4.43792766373412e-1,3.05e2
4.34017595307918e-1,2.23e2
4.24242424242424e-1,1.47e2
4.16422287390029e-1,5.3e1
4.07624633431085e-1,2.0
3.97849462365591e-1,9.0
3.89051808406647e-1,1.3e1
3.79276637341153e-1,5.8e1
3.71456500488759e-1,9.1e1
3.62658846529814e-1,1.07e2
3.54838709677419e-1,1.16e2
3.47996089931574e-1,9.6e1
3.41153470185728e-1,9.4e1
3.34310850439883e-1,4.9e1
3.28445747800586e-1,2.0
3.24535679374389e-1,2.8e1
3.20625610948192e-1,7.8e1
3.17693059628543e-1,1.65e2
3.13782991202346e-1,2.61e2
3.10850439882698e-1,3.42e2
3.069403714565e-1,4.04e2
3.04007820136852e-1,4.46e2
3.00097751710655e-1,4.76e2
2.97165200391007e-1,4.9e2
2.94232649071359e-1,4.94e2
2.91300097751711e-1,4.89e2
2.87390029325513e-1,4.95e2
2.85434995112414e-1,4.89e2
2.83479960899316e-1,4.52e2
2.81524926686217e-1,4.41e2
2.78592375366569e-1,4.58e2
2.75659824046921e-1,4.51e2
2.72727272727273e-1,4.19e2
2.70772238514174e-1,3.74e2
2.67839687194526e-1,3.3e2
2.64907135874878e-1,3.09e2
2.62952101661779e-1,2.8e2
2.60019550342131e-1,2.3e2
2.58064516129032e-1,2.09e2
2.56109481915934e-1,1.86e2
2.55131964809384e-1,1.54e2
2.54154447702835e-1,1.53e2
2.52199413489736e-1,1.57e2
2.50244379276637e-1,1.73e2
2.48289345063539e-1,1.61e2
2.4633431085044e-1,1.28e2
2.43401759530792e-1,1.1e2
2.41446725317693e-1,8.6e1
2.39491691104594e-1,4.7e1
2.36559139784946e-1,1.5e1
2.34604105571848e-1,9.0
2.32649071358749e-1,2.2e1
2.32649071358749e-1,4.8e1
2.32649071358749e-1,4.2e1
2.31671554252199e-1,1.3e1
2.3069403714565e-1,4.6e1
2.29716520039101e-1,6.2e1
2.28739002932551e-1,5.8e1
2.26783968719453e-1,6.5e1
2.24828934506354e-1,6.2e1
2.22873900293255e-1,4.2e1
2.19941348973607e-1,7.0
2.17986314760508e-1,1.7e1
2.1603128054741e-1,5.7e1
2.17008797653959e-1,9.0e1
2.20918866080156e-1,9.1e1
2.28739002932551e-1,4.7e1
2.43401759530792e-1,9.6e1
2.64907135874878e-1,3.17e2
2.95210166177908e-1,6.71e2
3.33333333333333e-1,1.182e3
3.79276637341153e-1,1.821e3
4.29130009775171e-1,2.588e3
4.81915933528837e-1,3.415e3
5.32746823069404e-1,4.213e3
5.79667644183773e-1,4.896e3
6.20723362658847e-1,5.384e3
6.49071358748778e-1,5.591e3
6.68621700879765e-1,5.515e3
6.83284457478006e-1,5.058e3
6.91104594330401e-1,4.248e3
6.91104594330401e-1,3.354e3
6.86217008797654e-1,2.38e3
6.7644183773216e-1,1.279e3
6.64711632453568e-1,1.65e2
6.52003910068426e-1,9.06e2
6.40273704789834e-1,1.886e3
6.3147605083089e-1,2.704e3
6.24633431085044e-1,3.34e3
6.21700879765396e-1,3.751e3
6.19745845552297e-1,3.96e3
6.20723362658847e-1,3.994e3
6.24633431085044e-1,3.886e3
6.29521016617791e-1,3.693e3
6.35386119257087e-1,3.375e3
6.40273704789834e-1,3.008e3
6.43206256109482e-1,2.646e3
6.42228739002933e-1,2.302e3
6.38318670576735e-1,2.046e3
6.3147605083089e-1,1.898e3
6.19745845552297e-1,1.855e3
6.11925708699902e-1,1.874e3
6.07038123167155e-1,1.989e3
5.97262952101662e-1,2.05e3
5.83577712609971e-1,1.916e3
5.67937438905181e-1,1.863e3
5.5425219941349e-1,1.965e3
5.41544477028348e-1,2.071e3
5.30791788856305e-1,2.116e3
5.2297165200391e-1,2.064e3
5.18084066471163e-1,1.953e3
5.14173998044966e-1,1.751e3
5.12218963831867e-1,1.46e3
5.11241446725318e-1,1.153e3
5.10263929618768e-1,8.39e2
5.0830889540567e-1,5.18e2
5.06353861192571e-1,2.39e2
5.04398826979472e-1,2.8e1
5.00488758553275e-1,1.36e2
4.95601173020528e-1,2.74e2
4.89736070381232e-1,3.46e2
4.81915933528837e-1,3.46e2
4.74095796676442e-1,3.21e2
4.65298142717498e-1,2.43e2
4.55522971652004e-1,1.44e2
4.4574780058651e-1,5.4e1
4.35972629521017e-1,6.5e1
4.27174975562072e-1,1.73e2
4.19354838709677e-1,2.55e2
4.10557184750733e-1,3.09e2
4.00782013685239e-1,3.13e2
3.92961876832845e-1,3.24e2
3.841642228739e-1,3.71e2
3.77321603128055e-1,3.74e2
3.70478983382209e-1,3.54e2
3.64613880742913e-1,3.3e2
3.58748778103617e-1,2.62e2
3.5386119257087e-1,1.99e2
3.48973607038123e-1,1.29e2
3.45063538611926e-1,5.1e1
3.41153470185728e-1,2.3e1
3.3822091886608e-1,1.02e2
3.35288367546432e-1,1.78e2
3.32355816226784e-1,2.52e2
3.28445747800586e-1,3.24e2
3.26490713587488e-1,3.74e2
3.2355816226784e-1,3.89e2
3.21603128054741e-1,4.19e2
3.19648093841642e-1,4.54e2
3.17693059628543e-1,4.64e2
3.16715542521994e-1,4.88e2
3.14760508308895e-1,4.96e2
3.14760508308895e-1,5.07e2
3.13782991202346e-1,5.13e2
3.13782991202346e-1,5.16e2
3.12805474095797e-1,5.36e2
3.11827956989247e-1,5.29e2
3.10850439882698e-1,5.19e2
3.10850439882698e-1,4.83e2
3.10850439882698e-1,4.45e2
3.10850439882698e-1,4.31e2
3.10850439882698e-1,4.19e2
3.10850439882698e-1,4.01e2
3.10850439882698e-1,3.76e2
3.10850439882698e-1,3.51e2
3.10850439882698e-1,3.21e2
3.11827956989247e-1,2.92e2
3.12805474095797e-1,2.61e2
3.12805474095797e-1,2.49e2
3.12805474095797e-1,2.5e2
3.12805474095797e-1,2.2e2
3.12805474095797e-1,1.76e2
3.11827956989247e-1,1.44e2
3.10850439882698e-1,1.1e2
3.10850439882698e-1,6.1e1
3.09872922776149e-1,2.0
3.08895405669599e-1,2.3e1
3.08895405669599e-1,4.9e1
3.08895405669599e-1,9.6e1
3.08895405669599e-1,1.05e2
3.08895405669599e-1,9.9e1
3.08895405669599e-1,1.02e2
3.09872922776149e-1,1.0e2
3.12805474095797e-1,9.9e1
3.18670576735093e-1,8.0e1
3.29423264907136e-1,9.0
3.47018572825024e-1,1.29e2
3.71456500488759e-1,3.71e2
4.03714565004888e-1,7.6e2
4.43792766373412e-1,1.286e3
4.82893450635386e-1,1.925e3
5.21994134897361e-1,2.67e3
5.6891495601173e-1,3.316e3
6.16813294232649e-1,3.744e3
6.62756598240469e-1,4.217e3
7.02834799608993e-1,4.693e3
7.36070381231672e-1,4.93e3
7.59530791788856e-1,4.923e3
7.74193548387097e-1,4.63e3
7.82013685239492e-1,4.044e3
7.82013685239492e-1,3.209e3
7.78103616813294e-1,2.234e3
7.70283479960899e-1,1.174e3
7.61485826001955e-1,9.1e1
7.51710654936461e-1,9.08e2
7.41935483870968e-1,1.803e3
7.34115347018573e-1,2.543e3
7.28250244379277e-1,3.137e3
7.26295210166178e-1,3.552e3
7.25317693059629e-1,3.774e3
7.28250244379277e-1,3.818e3
7.32160312805474e-1,3.725e3
7.36070381231672e-1,3.527e3
7.40957966764418e-1,3.229e3
7.42913000977517e-1,2.941e3
7.42913000977517e-1,2.646e3
7.40957966764418e-1,2.39e3
7.36070381231672e-1,2.245e3
7.27272727272727e-1,2.131e3
7.16520039100684e-1,2.087e3
7.02834799608993e-1,2.136e3
6.86217008797654e-1,2.226e3
6.69599217986315e-1,2.338e3
6.52981427174976e-1,2.494e3
6.36363636363636e-1,2.621e3
6.21700879765396e-1,2.67e3
6.08993157380254e-1,2.682e3
5.99217986314761e-1,2.614e3
5.91397849462366e-1,2.449e3
5.86510263929619e-1,2.204e3
5.82600195503421e-1,1.892e3
5.80645161290323e-1,1.534e3
5.78690127077224e-1,1.156e3
5.77712609970675e-1,7.87e2
5.74780058651026e-1,4.41e2
5.71847507331378e-1,1.37e2
5.67937438905181e-1,9.5e1
5.63049853372434e-1,2.51e2
5.56207233626588e-1,3.69e2
5.50342130987292e-1,4.26e2
5.43499511241447e-1,4.13e2
5.36656891495601e-1,3.93e2
5.27859237536657e-1,3.73e2
5.19061583577713e-1,3.25e2
5.10263929618768e-1,2.46e2
5.00488758553275e-1,1.45e2
4.90713587487781e-1,6.6e1
4.80938416422287e-1,2.0e1
4.71163245356794e-1,1.16e2
4.62365591397849e-1,1.83e2
4.53567937438905e-1,2.43e2
4.44770283479961e-1,2.73e2
4.37927663734115e-1,2.78e2
4.32062561094819e-1,2.88e2
4.25219941348974e-1,2.54e2
4.19354838709677e-1,1.72e2
4.13489736070381e-1,1.22e2
4.07624633431085e-1,7.8e1
4.02737047898338e-1,1.6e1
3.97849462365591e-1,2.4e1
3.93939393939394e-1,7.5e1
3.90029325513196e-1,1.34e2
3.86119257086999e-1,1.88e2
3.82209188660802e-1,2.5e2
3.79276637341153e-1,2.88e2
3.77321603128055e-1,3.15e2
3.74389051808407e-1,3.53e2
3.71456500488759e-1,4.09e2
3.6852394916911e-1,4.41e2
3.66568914956012e-1,4.36e2
3.63636363636364e-1,4.35e2
3.61681329423265e-1,4.41e2
3.58748778103617e-1,4.36e2
3.56793743890518e-1,4.2e2
3.5386119257087e-1,4.04e2
3.51906158357771e-1,3.79e2
3.49951124144673e-1,3.54e2
3.47996089931574e-1,3.25e2
3.47018572825024e-1,3.13e2
3.45063538611926e-1,2.95e2
3.42130987292278e-1,2.87e2
3.40175953079179e-1,2.79e2
3.37243401759531e-1,2.19e2
3.35288367546432e-1,1.79e2
3.32355816226784e-1,1.44e2
3.30400782013685e-1,1.02e2
3.29423264907136e-1,7.4e1
3.27468230694037e-1,4.1e1
3.25513196480938e-1,5.3e1
3.24535679374389e-1,5.4e1
3.2355816226784e-1,2.5e1
3.2258064516129e-1,3.4e1
3.20625610948192e-1,4.9e1
3.19648093841642e-1,5.3e1
3.17693059628543e-1,3.9e1
3.15738025415445e-1,2.7e1
3.13782991202346e-1,2.0e1
3.11827956989247e-1,1.2e1
3.09872922776149e-1,3.2e1
3.069403714565e-1,4.8e1
3.04985337243402e-1,6.7e1
3.03030303030303e-1,9.6e1
3.02052785923754e-1,1.22e2
3.03030303030303e-1,1.17e2
3.069403714565e-1,1.03e2
3.16715542521994e-1,3.7e1
3.32355816226784e-1,1.02e2
3.56793743890518e-1,3.59e2
3.89051808406647e-1,7.61e2
4.3010752688172e-1,1.309e3
4.7702834799609e-1,2.01e3
5.27859237536657e-1,2.807e3
5.79667644183773e-1,3.643e3
6.3049853372434e-1,4.411e3
6.70576735092864e-1,5.035e3
7.02834799608993e-1,5.464e3
7.31182795698925e-1,5.511e3
7.5366568914956e-1,5.149e3
7.6930596285435e-1,4.639e3
7.77126099706745e-1,4.003e3
7.78103616813294e-1,3.185e3
7.75171065493646e-1,2.236e3
7.68328445747801e-1,1.179e3
7.61485826001955e-1,1.33e2
7.5366568914956e-1,8.49e2
7.47800586510264e-1,1.711e3
7.43890518084066e-1,2.404e3
7.40957966764418e-1,2.936e3
7.39980449657869e-1,3.264e3
7.41935483870968e-1,3.452e3
7.46823069403715e-1,3.524e3
7.52688172043011e-1,3.441e3
7.60508308895406e-1,3.236e3
7.67350928641251e-1,2.967e3
7.72238514173998e-1,2.662e3
7.75171065493646e-1,2.357e3
7.74193548387097e-1,2.135e3
7.70283479960899e-1,1.98e3
7.62463343108504e-1,1.913e3
7.50733137829912e-1,1.945e3
7.3802541544477e-1,2.039e3
7.20430107526882e-1,2.215e3
7.00879765395894e-1,2.393e3
6.79374389051808e-1,2.591e3
6.57869012707722e-1,2.843e3
6.36363636363636e-1,3.044e3
6.17790811339198e-1,3.195e3
6.02150537634409e-1,3.27e3
5.89442815249267e-1,3.224e3
5.79667644183773e-1,3.043e3
5.72825024437928e-1,2.758e3
5.6891495601173e-1,2.397e3
5.65004887585533e-1,1.967e3
5.63049853372434e-1,1.495e3
5.61094819159335e-1,1.046e3
5.59139784946237e-1,6.36e2
5.56207233626588e-1,2.48e2
5.41544477028348e-1,6.6e1
5.20039100684262e-1,3.07e2
5.06353861192571e-1,2.68e2
4.94623655913978e-1,9.4e1
4.84848484848485e-1,2.7e2
4.74095796676442e-1,2.21e2
4.64320625610948e-1,1.91e2
4.55522971652004e-1,1.37e2
4.4574780058651e-1,9.9e1
4.35972629521017e-1,3.4e1
4.25219941348974e-1,2.2e1
4.1544477028348e-1,3.2e1
4.04692082111437e-1,3.9e1
3.94916911045943e-1,3.7e1
3.8514173998045e-1,4.0e1
3.76344086021505e-1,3.5e1
3.6852394916911e-1,5.0e1
3.60703812316716e-1,7.6e1
3.52883675464321e-1,1.25e2
3.47018572825024e-1,1.78e2
3.42130987292278e-1,2.08e2
3.37243401759531e-1,2.72e2
3.32355816226784e-1,3.68e2
3.27468230694037e-1,4.43e2
3.2258064516129e-1,4.94e2
3.18670576735093e-1,5.32e2
3.14760508308895e-1,5.52e2
3.10850439882698e-1,5.79e2
3.0791788856305e-1,6.07e2
3.04007820136852e-1,6.13e2
3.01075268817204e-1,6.28e2
2.99120234604106e-1,6.28e2
2.97165200391007e-1,6.1e2
2.95210166177908e-1,6.31e2
2.93255131964809e-1,6.45e2
2.90322580645161e-1,6.37e2
2.87390029325513e-1,6.26e2
2.85434995112414e-1,5.84e2
2.83479960899316e-1,5.24e2
2.80547409579668e-1,4.91e2
2.78592375366569e-1,4.68e2
2.7663734115347e-1,4.15e2
2.73704789833822e-1,3.68e2
2.70772238514174e-1,3.46e2
2.68817204301075e-1,2.91e2
2.66862170087977e-1,2.26e2
2.64907135874878e-1,1.96e2
2.62952101661779e-1,1.77e2
2.6099706744868e-1,1.52e2
2.58064516129032e-1,1.3e2
2.56109481915934e-1,1.08e2
2.53176930596285e-1,6.8e1
2.50244379276637e-1,3.6e1
2.48289345063539e-1,1.1e1
2.4633431085044e-1,3.5e1
2.44379276637341e-1,4.8e1
2.42424242424242e-1,4.1e1
2.41446725317693e-1,4.8e1
2.41446725317693e-1,4.7e1
2.41446725317693e-1,3.1e1
2.40469208211144e-1,1.7e1
2.39491691104594e-1,6.6e1
2.39491691104594e-1,8.0e1
2.38514173998045e-1,7.7e1
2.37536656891496e-1,9.7e1
2.37536656891496e-1,1.07e2
2.36559139784946e-1,8.9e1
2.34604105571848e-1,1.0e2
2.32649071358749e-1,1.03e2
2.3069403714565e-1,5.8e1
2.28739002932551e-1,1.5e1
2.27761485826002e-1,1.8e1
2.26783968719453e-1,5.0e1
2.26783968719453e-1,5.6e1
2.28739002932551e-1,4.6e1
2.36559139784946e-1,2.6e1
2.50244379276637e-1,4.5e1
2.71749755620723e-1,2.41e2
3.02052785923754e-1,5.94e2
3.41153470185728e-1,1.088e3
3.87096774193548e-1,1.745e3
4.38905180840665e-1,2.538e3
4.85826001955034e-1,3.382e3
5.28836754643206e-1,4.215e3
5.74780058651026e-1,4.813e3
6.19745845552297e-1,5.053e3
6.56891495601173e-1,5.214e3
6.87194525904203e-1,5.32e3
7.0772238514174e-1,5.119e3
7.19452590420332e-1,4.636e3
7.24340175953079e-1,3.915e3
7.2238514173998e-1,2.952e3
7.17497556207234e-1,1.884e3
7.09677419354839e-1,7.66e2
7.01857282502444e-1,3.24e2
6.94037145650049e-1,1.294e3
6.87194525904203e-1,2.131e3
6.84261974584555e-1,2.785e3
6.83284457478006e-1,3.276e3
6.84261974584555e-1,3.554e3
6.88172043010753e-1,3.634e3
6.94037145650049e-1,3.612e3
7.00879765395894e-1,3.456e3
7.0772238514174e-1,3.2e3
7.14565004887586e-1,2.911e3
7.18475073313783e-1,2.617e3
7.20430107526882e-1,2.339e3
7.17497556207234e-1,2.127e3
7.11632453567937e-1,2.006e3
7.02834799608993e-1,1.98e3
6.90127077223851e-1,2.057e3
6.73509286412512e-1,2.167e3
6.54936461388074e-1,2.335e3
6.34408602150538e-1,2.571e3
6.12903225806452e-1,2.803e3
5.92375366568915e-1,3.009e3
5.73802541544477e-1,3.18e3
5.57184750733138e-1,3.264e3
5.43499511241447e-1,3.228e3
5.32746823069404e-1,3.092e3
5.25904203323558e-1,2.857e3
5.20039100684262e-1,2.524e3
5.16129032258065e-1,2.106e3
5.13196480938416e-1,1.659e3
5.11241446725318e-1,1.23e3
5.09286412512219e-1,8.05e2
5.0733137829912e-1,4.14e2
5.03421309872923e-1,7.5e1
4.99511241446725e-1,2.08e2
4.94623655913978e-1,4.0e2
4.87781036168133e-1,5.23e2
4.79960899315738e-1,6.1e2
4.72140762463343e-1,6.17e2
4.64320625610948e-1,5.65e2
4.55522971652004e-1,5.12e2
4.4574780058651e-1,4.57e2
