0.233428955078125
0.38818359375
0.21270751953125
0.17877197265625
0.139862060546875
0.0667724609375
0.053497314453125
0.004730224609375
-0.011932373046875
-0.03631591796875
-0.053741455078125
-0.066558837890625
-0.079071044921875
-0.0850830078125
-0.09088134765625
-0.093475341796875
-0.093902587890625
-0.092529296875
-0.08941650390625
-0.085174560546875
-0.07928466796875
-0.073394775390625
-0.068145751953125
-0.0623779296875
-0.057891845703125
-0.053741455078125
-0.0484619140625
-0.043182373046875
-0.03759765625
-0.032501220703125
-0.027862548828125
-0.022857666015625
-0.01800537109375
-0.013275146484375
-0.00921630859375
-0.006378173828125
-0.00372314453125
-0.001434326171875
-0.000244140625
0.000946044921875
0.001953125
0.003173828125
0.004730224609375
0.005615234375
0.007476806640625
0.00933837890625
0.00970458984375
0.009674072265625
0.01007080078125
0.009613037109375
0.00836181640625
0.0081787109375
0.006988525390625
0.005859375
0.0057373046875
0.00445556640625
0.0035400390625
0.00396728515625
0.003814697265625
0.004669189453125
0.008819580078125
0.015655517578125
0.026458740234375
0.041748046875
0.0611572265625
0.08306884765625
0.106658935546875
0.129913330078125
0.149017333984375
0.158660888671875
0.156219482421875
0.15057373046875
0.141876220703125
0.12445068359375
0.101043701171875
0.072113037109375
0.040069580078125
0.007354736328125
-0.024658203125
-0.05364990234375
-0.0782470703125
-0.096649169921875
-0.1097412109375
-0.11773681640625
-0.1201171875
-0.11822509765625
-0.112152099609375
-0.103179931640625
-0.09332275390625
-0.082794189453125
-0.07366943359375
-0.066650390625
-0.0638427734375
-0.066162109375
-0.06829833984375
-0.069549560546875
-0.072113037109375
-0.07476806640625
-0.07769775390625
-0.079254150390625
-0.078460693359375
-0.075958251953125
-0.070587158203125
-0.063323974609375
-0.054107666015625
-0.043182373046875
-0.0325927734375
-0.022430419921875
-0.013275146484375
-0.006256103515625
-0.00018310546875
0.0050048828125
0.007843017578125
0.009246826171875
0.0093994140625
0.008880615234375
0.00738525390625
0.00482177734375
0.003082275390625
0.00140380859375
-0.00018310546875
-0.00140380859375
-0.003143310546875
-0.00445556640625
-0.00543212890625
-0.00640869140625
-0.006439208984375
-0.006591796875
-0.006805419921875
-0.00616455078125
-0.0052490234375
-0.00341796875
-0.00091552734375
0.000732421875
0.002105712890625
0.003875732421875
0.005035400390625
0.005828857421875
0.007080078125
0.008331298828125
0.009063720703125
0.009490966796875
0.01031494140625
0.010650634765625
0.011199951171875
0.012115478515625
0.01226806640625
0.0123291015625
0.012115478515625
0.0111083984375
0.01019287109375
0.0098876953125
0.008636474609375
0.00689697265625
0.00506591796875
0.003326416015625
0.003143310546875
0.003662109375
0.00372314453125
0.00311279296875
0.002716064453125
0.0023193359375
0.001251220703125
0.00048828125
-0.0001220703125
-0.000823974609375
-0.000732421875
-0.0008544921875
-0.0010986328125
-0.000518798828125
0.00079345703125
0.001678466796875
0.001617431640625
0.0018310546875
0.00244140625
0.00274658203125
0.002288818359375
0.00146484375
0.000823974609375
0.000274658203125
-0.000885009765625
-0.00115966796875
-0.000823974609375
-0.00152587890625
-0.002410888671875
-0.00299072265625
-0.0018310546875
0.0023193359375
0.008819580078125
0.019500732421875
0.034912109375
0.054351806640625
0.0765380859375
0.0992431640625
0.116943359375
0.12628173828125
0.135589599609375
0.143402099609375
0.14324951171875
0.13592529296875
0.120330810546875
0.09808349609375
0.071563720703125
0.041900634765625
0.011871337890625
-0.01666259765625
-0.042388916015625
-0.06378173828125
-0.080596923828125
-0.09185791015625
-0.09796142578125
-0.100067138671875
-0.098480224609375
-0.09344482421875
-0.0855712890625
-0.0767822265625
-0.068115234375
-0.059967041015625
-0.05401611328125
-0.051483154296875
-0.051177978515625
-0.0528564453125
-0.05633544921875
-0.06103515625
-0.06744384765625
-0.0738525390625
-0.07965087890625
-0.0848388671875
-0.08740234375
-0.087188720703125
-0.083831787109375
-0.07733154296875
-0.068115234375
-0.057220458984375
-0.045806884765625
-0.033660888671875
-0.021881103515625
-0.0115966796875
-0.00238037109375
0.00469970703125
0.00927734375
0.012847900390625
0.014434814453125
0.0145263671875
0.014190673828125
0.0130615234375
0.0108642578125
0.00787353515625
0.004364013671875
0.000946044921875
-0.001800537109375
-0.0047607421875
-0.007110595703125
-0.00775146484375
-0.008026123046875
-0.008331298828125
-0.00726318359375
-0.00482177734375
-0.002685546875
-0.001007080078125
0.00103759765625
0.00311279296875
0.00457763671875
0.005706787109375
0.00714111328125
0.008636474609375
0.00897216796875
0.0091552734375
0.01104736328125
0.012481689453125
0.013153076171875
0.0137939453125
0.013275146484375
0.01336669921875
0.013214111328125
0.011962890625
0.01171875
0.011077880859375
0.010162353515625
0.009490966796875
0.00848388671875
0.008209228515625
0.007659912109375
0.006927490234375
0.006378173828125
0.005035400390625
0.003997802734375
0.003082275390625
0.001495361328125
0.000946044921875
0.0003662109375
-0.001007080078125
-0.00177001953125
-0.00140380859375
-0.000152587890625
-9.1552734375e-05
3.0517578125e-05
0.0003662109375
0.000244140625
0.000396728515625
0.00030517578125
0.000823974609375
0.001129150390625
0.00115966796875
0.001373291015625
0.00128173828125
0.0018310546875
0.002716064453125
0.0025634765625
0.001953125
0.001617431640625
0.001190185546875
0.000213623046875
-0.000518798828125
-0.001068115234375
-0.001708984375
-0.00152587890625
-0.001007080078125
0.002105712890625
0.008270263671875
0.0166015625
0.02996826171875
0.047637939453125
0.068084716796875
0.09161376953125
0.114654541015625
0.13385009765625
0.148468017578125
0.156402587890625
0.156341552734375
0.14697265625
0.127593994140625
0.101043701171875
0.0716552734375
0.041961669921875
0.0123291015625
-0.016754150390625
-0.043212890625
-0.065093994140625
-0.082916259765625
-0.09552001953125
-0.1024169921875
-0.104644775390625
-0.102569580078125
-0.098968505859375
-0.092559814453125
-0.082550048828125
-0.073577880859375
-0.065765380859375
-0.05950927734375
-0.055755615234375
-0.052703857421875
-0.05316162109375
-0.0567626953125
-0.0615234375
-0.068115234375
-0.07452392578125
-0.07928466796875
-0.0831298828125
-0.08612060546875
-0.086456298828125
-0.0838623046875
-0.078155517578125
-0.069305419921875
-0.058380126953125
-0.045654296875
-0.033447265625
-0.022705078125
-0.012176513671875
-0.0035400390625
0.002960205078125
0.0086669921875
0.011993408203125
0.012969970703125
0.0135498046875
0.0126953125
0.0101318359375
0.007781982421875
0.005706787109375
0.003173828125
0.00054931640625
-0.0009765625
-0.001251220703125
-0.0018310546875
-0.0035400390625
-0.004608154296875
-0.00482177734375
-0.00469970703125
-0.003997802734375
-0.00360107421875
-0.002716064453125
-0.00079345703125
0.000946044921875
0.003387451171875
0.00634765625
0.00823974609375
0.009185791015625
0.009979248046875
0.011016845703125
0.01153564453125
0.01226806640625
0.0126953125
0.012542724609375
0.013031005859375
0.012939453125
0.013153076171875
0.013763427734375
0.014190673828125
0.014404296875
0.013580322265625
0.01287841796875
0.01153564453125
0.009552001953125
0.0086669921875
0.008087158203125
0.006683349609375
0.00494384765625
0.00360107421875
0.00347900390625
0.003692626953125
0.003448486328125
0.00335693359375
0.002532958984375
0.001312255859375
0.000457763671875
0.000213623046875
0.00042724609375
0.000396728515625
0.000335693359375
0.00030517578125
0.00018310546875
0.00067138671875
0.001495361328125
0.00250244140625
0.002655029296875
0.001556396484375
0.00042724609375
-0.001068115234375
-0.002227783203125
-0.003082275390625
-0.00396728515625
-0.003387451171875
-0.001434326171875
0.0025634765625
0.0093994140625
0.019622802734375
0.034149169921875
0.053192138671875
0.076019287109375
0.10028076171875
0.123992919921875
0.145050048828125
0.159912109375
0.166290283203125
0.164215087890625
0.153228759765625
0.132415771484375
0.103363037109375
0.0721435546875
0.04107666015625
0.008270263671875
-0.022308349609375
-0.049224853515625
-0.072662353515625
-0.0899658203125
-0.1016845703125
-0.108245849609375
-0.109100341796875
-0.10675048828125
-0.102783203125
-0.095672607421875
-0.086578369140625
-0.076690673828125
-0.068084716796875
-0.061737060546875
-0.057159423828125
-0.0556640625
-0.05743408203125
-0.0616455078125
-0.0672607421875
-0.07415771484375
-0.079803466796875
-0.082733154296875
-0.085479736328125
-0.08740234375
-0.08673095703125
-0.082855224609375
-0.0760498046875
-0.0665283203125
-0.054840087890625
-0.0428466796875
-0.031005859375
-0.019805908203125
-0.009429931640625
-0.000701904296875
0.00518798828125
0.00927734375
0.012176513671875
0.013336181640625
0.012481689453125
0.011444091796875
0.0093994140625
0.006927490234375
0.00457763671875
0.001708984375
0.00018310546875
-0.00018310546875
-0.000335693359375
-0.001678466796875
-0.002716064453125
-0.00323486328125
-0.003509521484375
-0.002899169921875
-0.002838134765625
-0.001495361328125
6.103515625e-05
0.0008544921875
0.00238037109375
0.0050048828125
0.0079345703125
0.010406494140625
0.0123291015625
0.013580322265625
0.0145263671875
0.01495361328125
0.015106201171875
0.01495361328125
0.015106201171875
0.014923095703125
0.0137939453125
0.013458251953125
0.01397705078125
0.013763427734375
0.012786865234375
0.01141357421875
0.010101318359375
0.00946044921875
0.008575439453125
0.00701904296875
0.006378173828125
0.00567626953125
0.00469970703125
0.004669189453125
0.004791259765625
0.005279541015625
0.004913330078125
0.00390625
0.00335693359375
0.00262451171875
0.001434326171875
0.000457763671875
0.00030517578125
-0.00067138671875
-0.001434326171875
-0.00128173828125
-0.000396728515625
0.00140380859375
0.00189208984375
0.00177001953125
0.001983642578125
0.00189208984375
0.00128173828125
0.000213623046875
-0.000518798828125
-0.001739501953125
-0.00274658203125
-0.002777099609375
-0.001434326171875
0.0029296875
0.009674072265625
0.020477294921875
0.03607177734375
0.055572509765625
0.079010009765625
0.104217529296875
0.128570556640625
0.1494140625
0.164306640625
0.170654296875
0.168365478515625
0.154388427734375
0.129669189453125
0.102386474609375
0.07269287109375
0.039093017578125
0.005096435546875
-0.027557373046875
-0.0574951171875
-0.08245849609375
-0.10186767578125
-0.11444091796875
-0.12078857421875
-0.121826171875
-0.118560791015625
-0.1126708984375
-0.102996826171875
-0.091827392578125
-0.080810546875
-0.0703125
-0.062469482421875
-0.057952880859375
-0.056671142578125
-0.0572509765625
-0.06072998046875
-0.06256103515625
-0.058502197265625
-0.056884765625
-0.059967041015625
-0.063201904296875
-0.0645751953125
-0.062957763671875
-0.0595703125
-0.053375244140625
-0.04449462890625
-0.03515625
-0.02557373046875
-0.015777587890625
-0.00726318359375
-0.000823974609375
0.004180908203125
0.008392333984375
0.010589599609375
0.0106201171875
0.009857177734375
0.007476806640625
0.004425048828125
0.001708984375
-0.001922607421875
-0.0052490234375
-0.00775146484375
-0.009368896484375
-0.009490966796875
-0.00982666015625
-0.01123046875
-0.01129150390625
-0.010711669921875
-0.009979248046875
-0.00787353515625
-0.00592041015625
-0.003814697265625
-0.001434326171875
0.000823974609375
0.00323486328125
0.005523681640625
0.0078125
0.010009765625
0.01153564453125
0.011993408203125
0.01287841796875
0.013946533203125
0.014251708984375
0.014984130859375
0.015228271484375
0.01556396484375
0.015716552734375
0.01580810546875
0.01641845703125
0.016204833984375
0.015899658203125
0.014801025390625
0.013641357421875
0.013214111328125
0.012847900390625
0.012298583984375
0.01153564453125
0.010772705078125
0.009857177734375
0.008941650390625
0.00799560546875
0.007598876953125
0.00762939453125
0.006683349609375
0.005340576171875
0.00433349609375
0.0032958984375
0.00177001953125
-3.0517578125e-05
-0.000823974609375
-0.001617431640625
-0.0030517578125
-0.003326416015625
-0.003143310546875
-0.00323486328125
-0.003173828125
-0.003143310546875
-0.0025634765625
-0.000396728515625
0.003814697265625
0.011199951171875
0.0230712890625
0.039093017578125
0.05859375
0.081329345703125
0.101043701171875
0.1141357421875
0.128570556640625
0.143096923828125
0.15032958984375
0.150115966796875
0.141204833984375
0.123321533203125
0.09783935546875
0.068115234375
0.0357666015625
0.002716064453125
-0.02777099609375
-0.055084228515625
-0.077667236328125
-0.095733642578125
-0.108428955078125
-0.11517333984375
-0.11651611328125
-0.113616943359375
-0.10760498046875
-0.098480224609375
-0.08966064453125
-0.08062744140625
-0.07281494140625
-0.068389892578125
-0.064910888671875
-0.063568115234375
-0.065093994140625
-0.067840576171875
-0.0712890625
-0.0760498046875
-0.079925537109375
-0.081451416015625
-0.081817626953125
-0.07977294921875
-0.074737548828125
-0.067291259765625
-0.0577392578125
-0.046783447265625
-0.035247802734375
-0.02398681640625
-0.013397216796875
-0.004150390625
0.002960205078125
0.00775146484375
0.0113525390625
0.01312255859375
0.01275634765625
0.01214599609375
0.011505126953125
0.010040283203125
0.007659912109375
0.004608154296875
0.002166748046875
-0.000457763671875
-0.00335693359375
-0.005401611328125
-0.00726318359375
-0.008148193359375
-0.008270263671875
-0.008636474609375
-0.007568359375
-0.00506591796875
-0.003509521484375
-0.002227783203125
-0.000335693359375
0.0008544921875
0.00244140625
0.004241943359375
0.005889892578125
0.00775146484375
0.0089111328125
0.009735107421875
0.010894775390625
0.012603759765625
0.013580322265625
0.013427734375
0.013397216796875
0.01361083984375
0.013427734375
0.012969970703125
0.012451171875
0.011688232421875
0.01092529296875
0.010040283203125
0.009674072265625
0.009124755859375
0.008880615234375
0.008636474609375
0.006805419921875
0.005584716796875
0.0045166015625
0.00323486328125
0.002349853515625
0.0013427734375
0.001678466796875
0.001678466796875
0.000762939453125
0.001007080078125
0.00146484375
0.001556396484375
0.001129150390625
0.000732421875
0.000518798828125
-0.000457763671875
-0.0010986328125
-0.0015869140625
-0.002166748046875
-0.003082275390625
-0.00384521484375
-0.003692626953125
-0.003265380859375
-0.001251220703125
0.00299072265625
0.010833740234375
0.02313232421875
0.03985595703125
0.06121826171875
0.085601806640625
0.111114501953125
0.134552001953125
0.15362548828125
0.166717529296875
0.168121337890625
0.157135009765625
0.141571044921875
0.1221923828125
0.097259521484375
0.068267822265625
0.036041259765625
0.00408935546875
-0.025848388671875
-0.05218505859375
-0.073333740234375
-0.08953857421875
-0.099578857421875
-0.105316162109375
-0.107513427734375
-0.10498046875
-0.098724365234375
-0.09051513671875
-0.081207275390625
-0.0718994140625
-0.065093994140625
-0.06036376953125
-0.058319091796875
-0.059295654296875
-0.062164306640625
-0.067535400390625
-0.07293701171875
-0.079010009765625
-0.086700439453125
-0.092864990234375
-0.097442626953125
-0.099761962890625
-0.098358154296875
-0.092803955078125
-0.084136962890625
-0.073089599609375
-0.05999755859375
-0.045623779296875
-0.031890869140625
-0.019378662109375
-0.00750732421875
0.002044677734375
0.0093994140625
0.0081787109375
-0.00286865234375
-0.008209228515625
-0.0067138671875
-0.005767822265625
-0.004150390625
-0.00299072265625
-0.0009765625
0.000701904296875
0.001007080078125
0.001251220703125
0.001190185546875
0.001251220703125
0.001129150390625
0.0015869140625
0.002349853515625
0.003875732421875
0.0054931640625
0.006378173828125
0.00830078125
0.011260986328125
0.0135498046875
0.01513671875
0.016265869140625
0.016876220703125
0.0177001953125
0.018585205078125
0.018768310546875
0.01922607421875
0.01922607421875
0.018707275390625
0.019317626953125
0.019744873046875
0.01947021484375
0.019134521484375
0.017852783203125
0.016021728515625
0.0150146484375
0.014312744140625
0.0126953125
0.011260986328125
0.010589599609375
0.008941650390625
0.0069580078125
0.006011962890625
0.00543212890625
0.004638671875
0.003936767578125
0.0032958984375
0.002044677734375
0.001068115234375
0.00030517578125
-0.0010986328125
-0.001495361328125
-0.00128173828125
-0.001495361328125
-0.00146484375
-0.0009765625
0.00048828125
0.001983642578125
0.00238037109375
0.002288818359375
0.002899169921875
0.003204345703125
0.002655029296875
0.00299072265625
0.003082275390625
0.001708984375
0.000396728515625
-0.000640869140625
-0.0015869140625
-0.00177001953125
-0.00146484375
-0.0008544921875
0.001312255859375
0.007293701171875
0.01806640625
0.033111572265625
0.053192138671875
0.077362060546875
0.10308837890625
0.1285400390625
0.146820068359375
0.1541748046875
0.159088134765625
0.162353515625
0.156280517578125
0.14154052734375
0.119537353515625
0.090179443359375
0.05755615234375
0.0234375
-0.00982666015625
-0.0394287109375
-0.06500244140625
-0.084991455078125
-0.099945068359375
-0.10845947265625
-0.11090087890625
-0.1102294921875
-0.105499267578125
-0.097686767578125
-0.088897705078125
-0.07989501953125
-0.0714111328125
-0.064971923828125
-0.061248779296875
-0.06048583984375
-0.062835693359375
-0.06622314453125
-0.07135009765625
-0.07855224609375
-0.08563232421875
-0.091949462890625
-0.09716796875
-0.0997314453125
-0.098663330078125
-0.094512939453125
-0.087310791015625
-0.077178955078125
-0.064361572265625
-0.050689697265625
-0.03759765625
-0.024627685546875
-0.0126953125
-0.0023193359375
0.00634765625
0.01220703125
0.016021728515625
0.018707275390625
0.0189208984375
0.017333984375
0.015716552734375
0.014068603515625
0.011871337890625
0.008697509765625
0.005035400390625
0.001556396484375
-0.0013427734375
-0.00323486328125
-0.00433349609375
-0.00543212890625
-0.006317138671875
-0.006317138671875
-0.0047607421875
-0.00201416015625
0.000335693359375
0.002197265625
0.00372314453125
0.0048828125
0.00628662109375
0.007843017578125
0.00933837890625
0.010955810546875
0.01190185546875
0.0130615234375
0.014373779296875
0.015472412109375
0.017303466796875
0.01763916015625
0.016998291015625
0.016693115234375
0.015838623046875
0.014984130859375
0.013427734375
0.011932373046875
0.01123046875
0.01068115234375
0.009429931640625
0.0087890625
0.008819580078125
0.007598876953125
0.0062255859375
0.004486083984375
0.002960205078125
0.00177001953125
0.00054931640625
0.00018310546875
-0.00030517578125
-0.001434326171875
-0.002105712890625
-0.00213623046875
-0.001739501953125
-0.0009765625
-0.000457763671875
-0.001251220703125
-0.002227783203125
-0.002166748046875
-0.0018310546875
-0.00164794921875
-0.0020751953125
-0.002288818359375
-0.001251220703125
-0.00067138671875
0.00018310546875
0.00225830078125
0.002777099609375
0.00274658203125
0.00244140625
0.001373291015625
0.00079345703125
-0.000396728515625
-0.001373291015625
-0.001983642578125
-0.002777099609375
-0.002593994140625
-0.002105712890625
0.000457763671875
0.004547119140625
0.009307861328125
0.01751708984375
0.03045654296875
0.047698974609375
0.06854248046875
0.093292236328125
0.118896484375
0.14202880859375
0.161102294921875
0.173797607421875
0.174407958984375
0.16259765625
0.146484375
0.12579345703125
0.098785400390625
0.067138671875
0.032989501953125
-0.001556396484375
-0.0347900390625
-0.063629150390625
-0.086883544921875
-0.104461669921875
-0.11553955078125
-0.120697021484375
-0.121795654296875
-0.117889404296875
-0.10955810546875
-0.09918212890625
-0.087921142578125
-0.076995849609375
-0.0675048828125
-0.06011962890625
-0.05560302734375
-0.054412841796875
-0.056915283203125
-0.06109619140625
-0.0655517578125
-0.07196044921875
-0.078857421875
-0.084228515625
-0.08734130859375
-0.0880126953125
-0.08642578125
-0.080535888671875
-0.07171630859375
-0.0615234375
-0.048980712890625
-0.030670166015625
-0.007232666015625
0.00927734375
0.01763916015625
0.023651123046875
0.025482177734375
0.025421142578125
0.024566650390625
0.021484375
0.018035888671875
0.0133056640625
0.008148193359375
0.003662109375
0.00018310546875
-0.002105712890625
-0.004974365234375
-0.0076904296875
-0.01025390625
-0.011749267578125
-0.012176513671875
-0.0128173828125
-0.012451171875
-0.011566162109375
-0.010345458984375
-0.008636474609375
-0.00677490234375
-0.00408935546875
-0.000885009765625
0.001983642578125
0.004241943359375
0.006011962890625
0.00799560546875
0.009368896484375
0.0096435546875
0.00994873046875
0.010589599609375
0.011322021484375
0.0115966796875
0.012176513671875
0.01300048828125
0.013153076171875
0.013153076171875
0.012908935546875
0.011871337890625
0.010345458984375
0.009033203125
0.008331298828125
0.0074462890625
0.006500244140625
0.006256103515625
0.0057373046875
0.006256103515625
0.0076904296875
0.007568359375
0.007598876953125
0.00762939453125
0.006072998046875
0.00506591796875
0.004241943359375
0.0025634765625
0.00146484375
0.00042724609375
0.0
0.000213623046875
0.0006103515625
0.001495361328125
0.000823974609375
-0.00018310546875
-0.0006103515625
-0.001922607421875
-0.00274658203125
-0.003326416015625
-0.003997802734375
-0.00433349609375
-0.004730224609375
-0.004364013671875
-0.00299072265625
-0.00213623046875
-0.00091552734375
0.001922607421875
0.006500244140625
0.014862060546875
0.026763916015625
0.043304443359375
0.063995361328125
0.08648681640625
0.109771728515625
0.131500244140625
0.1458740234375
0.149169921875
0.149688720703125
0.148101806640625
0.1378173828125
0.11962890625
0.094879150390625
0.06561279296875
0.033538818359375
0.001007080078125
-0.02923583984375
-0.056182861328125
-0.0784912109375
-0.095184326171875
-0.106842041015625
-0.11309814453125
-0.114166259765625
-0.110809326171875
-0.103546142578125
-0.093994140625
-0.08349609375
-0.073333740234375
-0.064483642578125
-0.058319091796875
-0.05474853515625
-0.05364990234375
-0.055389404296875
-0.058502197265625
-0.062957763671875
-0.06805419921875
-0.072235107421875
-0.07562255859375
-0.0765380859375
-0.073944091796875
-0.069061279296875
-0.061676025390625
-0.05169677734375
-0.041748046875
-0.0316162109375
-0.02105712890625
-0.011505126953125
-0.002899169921875
0.004119873046875
0.009307861328125
0.01190185546875
0.012420654296875
0.0125732421875
0.010772705078125
0.007537841796875
0.004791259765625
0.001708984375
-0.0008544921875
-0.0040283203125
-0.007293701171875
-0.009429931640625
-0.0120849609375
-0.0133056640625
-0.01361083984375
-0.013580322265625
-0.0120849609375
-0.010528564453125
-0.00927734375
-0.00689697265625
-0.003936767578125
-0.001312255859375
0.00091552734375
0.00262451171875
0.004638671875
0.006072998046875
0.007568359375
0.009368896484375
0.010833740234375
0.011932373046875
0.012481689453125
0.013427734375
0.0137939453125
0.013763427734375
0.013641357421875
0.013153076171875
0.012603759765625
0.0118408203125
0.0115966796875
0.011077880859375
0.00970458984375
0.008087158203125
0.00604248046875
0.00433349609375
0.00341796875
0.002960205078125
0.002349853515625
0.00177001953125
0.00128173828125
0.000732421875
0.0008544921875
0.00079345703125
0.00054931640625
0.001068115234375
0.000640869140625
0.000274658203125
0.00079345703125
0.000732421875
0.000762939453125
0.000762939453125
6.103515625e-05
-0.0009765625
-0.001129150390625
-0.00140380859375
-0.002410888671875
-0.003448486328125
-0.0048828125
-0.005889892578125
-0.00604248046875
-0.004638671875
-0.001373291015625
0.003509521484375
0.0115966796875
0.024017333984375
0.041015625
0.061279296875
0.08441162109375
0.108642578125
0.130340576171875
0.148345947265625
0.159393310546875
0.16162109375
0.15374755859375
0.134857177734375
0.111175537109375
0.085418701171875
0.056488037109375
0.02618408203125
-0.00384521484375
-0.03179931640625
-0.05615234375
-0.075927734375
-0.0906982421875
-0.100250244140625
-0.104827880859375
-0.10601806640625
-0.10302734375
-0.096038818359375
-0.088104248046875
-0.07879638671875
-0.070037841796875
-0.0638427734375
-0.0587158203125
-0.0567626953125
-0.057769775390625
-0.0611572265625
-0.06646728515625
-0.071044921875
-0.075836181640625
-0.080657958984375
-0.084564208984375
-0.08697509765625
-0.0869140625
-0.083526611328125
-0.07708740234375
-0.06903076171875
-0.058380126953125
-0.0457763671875
-0.033355712890625
-0.021087646484375
-0.010406494140625
-0.0009765625
0.00750732421875
0.01300048828125
0.01641845703125
0.016632080078125
0.012115478515625
0.008331298828125
0.00653076171875
0.005279541015625
0.00408935546875
0.001678466796875
0.000518798828125
9.1552734375e-05
-0.00140380859375
-0.00225830078125
-0.003021240234375
-0.003265380859375
-0.00274658203125
-0.002716064453125
-0.0025634765625
-0.00189208984375
-0.00030517578125
0.00128173828125
0.002899169921875
0.005340576171875
0.00689697265625
0.007965087890625
0.00897216796875
0.009368896484375
0.010833740234375
0.0115966796875
0.011749267578125
0.012054443359375
0.01171875
0.01202392578125
0.012451171875
0.012939453125
0.012542724609375
0.01190185546875
0.011474609375
0.01055908203125
0.009857177734375
0.0089111328125
0.008026123046875
0.00653076171875
0.00518798828125
0.004119873046875
0.003509521484375
0.003570556640625
0.003173828125
0.002899169921875
0.00201416015625
0.00067138671875
-0.00079345703125
-0.001495361328125
-0.00146484375
-0.002410888671875
-0.00238037109375
-0.001190185546875
-0.000701904296875
-0.000213623046875
0.000823974609375
0.001434326171875
0.00128173828125
0.000732421875
0.000335693359375
0.0
-0.000396728515625
-0.00067138671875
-0.0009765625
-0.001800537109375
-0.002410888671875
-0.002227783203125
-0.001190185546875
0.001220703125
0.005035400390625
0.011627197265625
0.0218505859375
0.036102294921875
0.05450439453125
0.076171875
0.09918212890625
0.121307373046875
0.140655517578125
0.154876708984375
0.158447265625
0.150238037109375
0.138031005859375
0.122406005859375
0.100372314453125
0.0731201171875
0.043121337890625
0.0128173828125
-0.01666259765625
-0.042938232421875
-0.06475830078125
-0.08209228515625
-0.09356689453125
-0.099945068359375
-0.102783203125
-0.1016845703125
-0.0963134765625
-0.088958740234375
-0.0804443359375
-0.07171630859375
-0.0643310546875
-0.05810546875
-0.05413818359375
-0.053070068359375
-0.055145263671875
-0.059234619140625
-0.0635986328125
-0.069305419921875
-0.07586669921875
-0.081634521484375
-0.086578369140625
-0.0897216796875
-0.089111328125
-0.084869384765625
-0.07855224609375
-0.06976318359375
-0.0584716796875
-0.046234130859375
-0.03363037109375
-0.021392822265625
-0.010711669921875
-0.001220703125
0.006683349609375
0.011810302734375
0.01568603515625
0.017669677734375
0.017303466796875
0.01617431640625
0.013946533203125
0.0108642578125
0.008392333984375
0.0067138671875
0.00439453125
0.0018310546875
-9.1552734375e-05
-0.00244140625
-0.004302978515625
-0.005126953125
-0.005523681640625
-0.0052490234375
-0.005157470703125
-0.00396728515625
-0.001861572265625
-9.1552734375e-05
0.003173828125
0.00543212890625
0.006317138671875
0.008087158203125
0.009002685546875
0.009552001953125
0.0106201171875
0.0115966796875
0.012115478515625
0.012298583984375
0.012847900390625
0.013519287109375
0.01422119140625
0.014495849609375
0.01324462890625
0.012237548828125
0.01190185546875
0.011016845703125
0.010223388671875
0.009368896484375
0.0084228515625
0.007537841796875
0.006011962890625
0.004730224609375
0.004241943359375
0.003448486328125
0.002716064453125
0.002105712890625
0.001434326171875
0.000885009765625
-0.000244140625
-0.001129150390625
-0.0006103515625
-0.000518798828125
-0.0006103515625
0.000152587890625
0.000396728515625
0.001190185546875
0.00238037109375
0.00238037109375
0.001983642578125
0.00177001953125
0.000885009765625
0.00018310546875
0.00030517578125
6.103515625e-05
-0.000152587890625
-0.000823974609375
-0.00146484375
-0.001190185546875
-0.000732421875
-0.00042724609375
-0.00079345703125
0.000152587890625
0.003692626953125
0.010284423828125
0.02105712890625
0.035675048828125
0.05426025390625
0.0762939453125
0.099456787109375
0.117767333984375
0.128814697265625
0.138641357421875
0.14678955078125
0.147308349609375
0.1400146484375
0.12469482421875
0.101318359375
0.073455810546875
0.042999267578125
0.011474609375
-0.018646240234375
-0.046051025390625
-0.068206787109375
-0.0855712890625
-0.098052978515625
-0.104705810546875
-0.107269287109375
-0.1048583984375
-0.099090576171875
-0.09149169921875
-0.082275390625
-0.073394775390625
-0.064971923828125
-0.058624267578125
-0.0557861328125
-0.055084228515625
-0.056427001953125
-0.059539794921875
-0.063873291015625
-0.068817138671875
-0.074127197265625
-0.07928466796875
-0.082427978515625
-0.083740234375
-0.082672119140625
-0.0777587890625
-0.071014404296875
-0.062103271484375
-0.050689697265625
-0.03973388671875
-0.028656005859375
-0.01739501953125
-0.007293701171875
0.000579833984375
0.00592041015625
0.010162353515625
0.01239013671875
0.013580322265625
0.0135498046875
0.012054443359375
0.011138916015625
0.00885009765625
0.00567626953125
0.003509521484375
0.000762939453125
-0.002655029296875
-0.005126953125
-0.006591796875
-0.008026123046875
-0.009124755859375
-0.00927734375
-0.0078125
-0.005096435546875
-0.002716064453125
-0.000244140625
0.00177001953125
0.0037841796875
0.00604248046875
0.007415771484375
0.008575439453125
0.009368896484375
0.0103759765625
0.010986328125
0.011688232421875
0.01275634765625
0.01416015625
0.015655517578125
0.01507568359375
0.01470947265625
0.014373779296875
0.013427734375
0.013336181640625
0.0126953125
0.0113525390625
0.01025390625
0.009674072265625
0.008880615234375
0.008544921875
0.008148193359375
0.006256103515625
0.00439453125
0.00347900390625
0.00238037109375
0.001373291015625
0.0006103515625
-0.000213623046875
-0.000823974609375
-0.001983642578125
-0.002288818359375
-0.00189208984375
-0.001434326171875
-0.000335693359375
-0.000335693359375
-0.000213623046875
6.103515625e-05
-0.0006103515625
-0.000885009765625
-0.001708984375
-0.00244140625
-0.002166748046875
-0.002349853515625
-0.0018310546875
-0.0008544921875
-0.000946044921875
-0.00140380859375
-0.0015869140625
-0.002410888671875
-0.00299072265625
-0.003875732421875
-0.00531005859375
-0.0048828125
-0.00372314453125
0.00030517578125
0.009033203125
0.019622802734375
0.032806396484375
0.050872802734375
0.073486328125
0.0986328125
0.123443603515625
0.145782470703125
0.16290283203125
0.171905517578125
0.17169189453125
0.162109375
0.143646240234375
0.1160888671875
0.082855224609375
0.048980712890625
0.014923095703125
-0.0189208984375
-0.04901123046875
-0.074310302734375
-0.095001220703125
-0.10943603515625
-0.11798095703125
-0.1199951171875
-0.116668701171875
-0.1104736328125
-0.101837158203125
-0.09307861328125
-0.083526611328125
-0.072509765625
-0.0640869140625
-0.058197021484375
-0.0550537109375
-0.055267333984375
-0.05804443359375
-0.06390380859375
-0.070098876953125
-0.076263427734375
-0.0811767578125
-0.081787109375
-0.08172607421875
-0.08074951171875
-0.075958251953125
-0.06878662109375
-0.059600830078125
-0.048736572265625
-0.03680419921875
-0.024566650390625
-0.013458251953125
-0.00421142578125
0.0035400390625
0.010009765625
0.014556884765625
0.016510009765625
0.0164794921875
0.015533447265625
0.013458251953125
0.010589599609375
0.007659912109375
0.0040283203125
0.000457763671875
-0.00225830078125
-0.0047607421875
-0.00555419921875
-0.0052490234375
-0.00543212890625
-0.005950927734375
-0.00567626953125
-0.004852294921875
-0.004486083984375
-0.003387451171875
-0.00146484375
0.000396728515625
0.001739501953125
0.003448486328125
0.005279541015625
0.007598876953125
0.01043701171875
0.01220703125
0.012939453125
0.013519287109375
0.014312744140625
0.014007568359375
0.0135498046875
0.01434326171875
0.0142822265625
0.01336669921875
0.01324462890625
0.0133056640625
0.013458251953125
0.01336669921875
0.0123291015625
0.011474609375
0.010009765625
0.007965087890625
0.00701904296875
0.005889892578125
0.004119873046875
0.00341796875
0.003173828125
0.00262451171875
0.002777099609375
0.0032958984375
0.00341796875
0.003509521484375
0.002960205078125
0.001861572265625
0.001190185546875
0.000457763671875
-0.000762939453125
-0.001678466796875
-0.001800537109375
-0.002105712890625
-0.001251220703125
0.00054931640625
0.000885009765625
0.000823974609375
0.0009765625
0.00091552734375
0.000885009765625
0.000244140625
-0.000823974609375
-0.00091552734375
-3.0517578125e-05
0.0020751953125
0.007476806640625
0.01507568359375
0.0245361328125
0.0394287109375
0.05859375
0.081695556640625
0.10760498046875
0.132476806640625
0.154998779296875
0.17144775390625
0.17987060546875
0.17919921875
0.167755126953125
0.145721435546875
0.115020751953125
0.081817626953125
0.04791259765625
0.012847900390625
-0.02069091796875
-0.051910400390625
-0.078704833984375
-0.09991455078125
-0.114654541015625
-0.1231689453125
-0.12646484375
-0.123748779296875
-0.118377685546875
-0.11114501953125
-0.101165771484375
-0.09039306640625
-0.079833984375
-0.07049560546875
-0.064453125
-0.061920166015625
-0.0618896484375
-0.06475830078125
-0.06927490234375
-0.07391357421875
-0.07684326171875
-0.07733154296875
-0.07757568359375
-0.075958251953125
-0.071075439453125
-0.064483642578125
-0.056182861328125
-0.04608154296875
-0.03533935546875
-0.02471923828125
-0.0146484375
-0.006378173828125
3.0517578125e-05
0.00439453125
0.00579833984375
0.006195068359375
0.00738525390625
0.007293701171875
0.005950927734375
0.006317138671875
0.00848388671875
0.008270263671875
0.00518798828125
0.00177001953125
-0.001556396484375
-0.00421142578125
-0.005889892578125
-0.006805419921875
-0.00823974609375
-0.00927734375
-0.0098876953125
-0.009979248046875
-0.0086669921875
-0.007354736328125
-0.0057373046875
-0.0037841796875
-0.0018310546875
0.0003662109375
0.003662109375
0.00665283203125
0.00799560546875
0.0093994140625
0.01031494140625
0.0113525390625
0.012054443359375
0.012176513671875
0.01226806640625
0.011962890625
0.0115966796875
0.010467529296875
0.00994873046875
0.01055908203125
0.010345458984375
0.009490966796875
0.0087890625
0.007415771484375
0.005584716796875
0.00421142578125
0.002838134765625
0.0015869140625
0.0010986328125
0.000518798828125
0.00042724609375
0.0009765625
0.001007080078125
0.001129150390625
0.000579833984375
0.0001220703125
-0.0001220703125
-3.0517578125e-05
0.000701904296875
0.000335693359375
0.00018310546875
0.00018310546875
-0.000701904296875
-0.000579833984375
-3.0517578125e-05
6.103515625e-05
-0.00030517578125
-0.001190185546875
-0.001708984375
-0.00274658203125
-0.00360107421875
-0.003509521484375
-0.00262451171875
0.001434326171875
0.009246826171875
0.01885986328125
0.030120849609375
0.045623779296875
0.0660400390625
0.089447021484375
0.11297607421875
0.13372802734375
0.14984130859375
0.159454345703125
0.160736083984375
0.15283203125
0.136993408203125
0.11322021484375
0.082763671875
0.04998779296875
0.01727294921875
-0.013824462890625
-0.04205322265625
-0.0667724609375
-0.085968017578125
-0.099090576171875
-0.10687255859375
-0.10943603515625
-0.107757568359375
-0.10321044921875
-0.096649169921875
-0.089569091796875
-0.081390380859375
-0.07171630859375
-0.06378173828125
-0.0584716796875
-0.055328369140625
-0.055450439453125
-0.059051513671875
-0.06463623046875
-0.07073974609375
-0.077056884765625
-0.08294677734375
-0.08612060546875
-0.08575439453125
-0.084197998046875
-0.08074951171875
-0.0743408203125
-0.06640625
-0.055816650390625
-0.0439453125
-0.032012939453125
-0.01953125
-0.0089111328125
0.000396728515625
0.008331298828125
0.013275146484375
0.01708984375
0.018951416015625
0.018463134765625
0.015533447265625
0.0108642578125
0.009246826171875
0.00732421875
0.00323486328125
0.00079345703125
-0.001617431640625
-0.003753662109375
-0.004150390625
-0.003173828125
-0.002716064453125
-0.003021240234375
-0.002899169921875
-0.002410888671875
-0.0020751953125
-0.001312255859375
0.00048828125
0.002105712890625
0.003265380859375
0.004180908203125
0.006561279296875
0.009307861328125
0.010833740234375
0.01220703125
0.013031005859375
0.013458251953125
0.013641357421875
0.01348876953125
0.01312255859375
0.013153076171875
0.01287841796875
0.01226806640625
0.01171875
0.010894775390625
0.01123046875
0.0111083984375
0.00994873046875
0.008697509765625
0.007354736328125
0.006256103515625
0.004486083984375
0.003631591796875
0.002838134765625
0.001190185546875
0.00079345703125
0.000762939453125
0.001007080078125
0.001800537109375
0.002105712890625
0.001800537109375
0.0015869140625
0.00201416015625
0.001495361328125
0.001068115234375
0.00091552734375
0.00042724609375
0.00079345703125
0.000244140625
-0.000244140625
0.000762939453125
0.00103759765625
0.000640869140625
0.0
-0.0006103515625
-0.001007080078125
-0.002655029296875
-0.00372314453125
-0.003814697265625
-0.003173828125
0.000244140625
0.00579833984375
0.013458251953125
0.025726318359375
0.04327392578125
0.064239501953125
0.087921142578125
0.11187744140625
0.134063720703125
0.15240478515625
0.16339111328125
0.165863037109375
0.158966064453125
0.14202880859375
0.115936279296875
0.0869140625
0.057037353515625
0.02435302734375
-0.00775146484375
-0.03717041015625
-0.06231689453125
-0.08258056640625
-0.0972900390625
-0.106536865234375
-0.111083984375
-0.1107177734375
-0.107269287109375
-0.10223388671875
-0.094451904296875
-0.084075927734375
-0.074493408203125
-0.06610107421875
-0.05950927734375
-0.05645751953125
-0.055694580078125
-0.057403564453125
-0.062530517578125
-0.06866455078125
-0.07415771484375
-0.077911376953125
-0.0814208984375
-0.0848388671875
-0.08514404296875
-0.08331298828125
-0.078704833984375
-0.071075439453125
-0.061767578125
-0.050079345703125
-0.036956787109375
-0.024017333984375
-0.012786865234375
-0.002838134765625
0.005523681640625
0.01104736328125
0.014678955078125
0.01715087890625
0.017852783203125
0.016571044921875
0.0145263671875
0.010498046875
0.005523681640625
0.003631591796875
0.002593994140625
0.00048828125
-0.00543212890625
-0.017181396484375
-0.024200439453125
-0.024200439453125
-0.022735595703125
-0.019134521484375
-0.0152587890625
-0.011077880859375
-0.0068359375
-0.00311279296875
0.000762939453125
0.00421142578125
0.008697509765625
0.01251220703125
0.01507568359375
0.017303466796875
0.01861572265625
0.02008056640625
0.021453857421875
0.02197265625
0.022125244140625
0.021881103515625
0.021270751953125
0.02044677734375
0.019378662109375
0.019317626953125
0.018768310546875
0.017120361328125
0.01593017578125
0.01446533203125
0.012969970703125
0.011566162109375
0.009552001953125
0.007232666015625
0.005340576171875
0.004180908203125
0.003570556640625
0.00335693359375
0.00360107421875
0.0035400390625
0.00225830078125
0.00079345703125
0.0003662109375
-0.0008544921875
-0.00189208984375
-0.001861572265625
-0.001739501953125
-0.0009765625
0.0
0.001251220703125
0.00213623046875
0.00274658203125
0.0032958984375
0.003021240234375
0.002838134765625
0.00274658203125
0.001251220703125
0.000274658203125
0.00018310546875
-0.00091552734375
-0.002197265625
-0.003021240234375
-0.003265380859375
-0.00177001953125
0.000244140625
0.003753662109375
0.011016845703125
0.021942138671875
0.0379638671875
0.05810546875
0.0809326171875
0.10498046875
0.1278076171875
0.147705078125
0.1571044921875
0.155029296875
0.14947509765625
0.139801025390625
0.122344970703125
0.098541259765625
0.070037841796875
0.037750244140625
0.005279541015625
-0.025543212890625
-0.053070068359375
-0.07562255859375
-0.09344482421875
-0.105743408203125
-0.112548828125
-0.114837646484375
-0.112762451171875
-0.106475830078125
-0.097686767578125
-0.08721923828125
-0.07708740234375
-0.068359375
-0.06146240234375
-0.056884765625
-0.05560302734375
-0.057647705078125
-0.060150146484375
-0.06427001953125
-0.0703125
-0.0760498046875
-0.08154296875
-0.085113525390625
-0.08538818359375
-0.083160400390625
-0.077545166015625
-0.069427490234375
-0.059600830078125
-0.048095703125
-0.03570556640625
-0.023681640625
-0.013214111328125
-0.003173828125
0.005035400390625
0.0103759765625
0.013458251953125
0.0142822265625
0.0140380859375
0.01263427734375
0.01025390625
0.0067138671875
0.00323486328125
0.0023193359375
0.00152587890625
-0.001251220703125
-0.004180908203125
-0.006256103515625
-0.008697509765625
-0.00994873046875
-0.0096435546875
-0.00982666015625
-0.00921630859375
-0.006866455078125
-0.004791259765625
-0.00262451171875
0.0009765625
0.00457763671875
0.007171630859375
0.00872802734375
0.00994873046875
0.011444091796875
0.012847900390625
0.013671875
0.0146484375
0.01580810546875
0.016204833984375
0.01690673828125
0.018310546875
0.018798828125
0.018280029296875
0.017242431640625
0.015533447265625
0.014007568359375
0.01251220703125
0.011505126953125
0.010467529296875
0.009185791015625
0.008209228515625
0.007049560546875
0.006622314453125
0.006011962890625
0.0052490234375
0.00469970703125
0.003387451171875
0.002410888671875
0.001617431640625
0.000701904296875
9.1552734375e-05
-0.001190185546875
-0.00152587890625
-0.001190185546875
-0.00079345703125
0.000244140625
0.00079345703125
0.001251220703125
0.001678466796875
0.001861572265625
0.002044677734375
0.002105712890625
0.002105712890625
0.001495361328125
0.0009765625
0.00067138671875
0.000152587890625
0.001007080078125
0.00140380859375
0.00030517578125
-0.00067138671875
-0.00091552734375
-0.000640869140625
0.00103759765625
0.005645751953125
0.013641357421875
0.025909423828125
0.04278564453125
0.064056396484375
0.08441162109375
0.100830078125
0.119842529296875
0.140655517578125
0.156219482421875
0.164794921875
0.164154052734375
0.153656005859375
0.134246826171875
0.107208251953125
0.07452392578125
0.038543701171875
0.00311279296875
-0.029693603515625
-0.059417724609375
-0.084930419921875
-0.1046142578125
-0.1177978515625
-0.125885009765625
-0.127227783203125
-0.12310791015625
-0.11578369140625
-0.10430908203125
-0.0919189453125
-0.080322265625
-0.0704345703125
-0.06341552734375
-0.0582275390625
-0.055450439453125
-0.05523681640625
-0.057403564453125
-0.062225341796875
-0.0677490234375
-0.07281494140625
-0.07684326171875
-0.078155517578125
-0.07659912109375
-0.07177734375
-0.063812255859375
-0.054229736328125
-0.04376220703125
-0.032562255859375
-0.022125244140625
-0.012298583984375
-0.0028076171875
0.00408935546875
0.009307861328125
0.013275146484375
0.015045166015625
0.01495361328125
0.01434326171875
0.0137939453125
0.009490966796875
0.003997802734375
0.002716064453125
0.001190185546875
-0.001739501953125
0.00115966796875
0.010040283203125
0.01446533203125
0.01214599609375
0.00970458984375
0.008453369140625
0.007354736328125
0.005706787109375
0.004241943359375
0.003692626953125
0.00335693359375
0.0035400390625
0.00457763671875
0.006256103515625
0.0072021484375
0.0078125
0.00836181640625
0.009033203125
0.010040283203125
0.010955810546875
0.01153564453125
0.0111083984375
0.011322021484375
0.011260986328125
0.010711669921875
0.010955810546875
0.0106201171875
0.0101318359375
0.00909423828125
0.007415771484375
0.006744384765625
0.006439208984375
0.00579833984375
0.004669189453125
0.00311279296875
0.002471923828125
0.002349853515625
0.001861572265625
0.00152587890625
0.00115966796875
0.000762939453125
0.001007080078125
0.00103759765625
0.000885009765625
0.00146484375
0.00164794921875
0.001678466796875
0.001800537109375
0.0010986328125
0.000640869140625
0.00030517578125
-0.000762939453125
-0.00146484375
-0.00201416015625
-0.00262451171875
-0.003570556640625
-0.004364013671875
-0.004791259765625
-0.005340576171875
-0.00445556640625
-0.002227783203125
0.0025634765625
0.011688232421875
0.032470703125
0.056488037109375
0.074554443359375
0.11016845703125
0.1363525390625
0.135101318359375
0.14068603515625
0.145355224609375
0.14141845703125
0.1253662109375
0.099761962890625
0.074432373046875
0.042327880859375
0.008453369140625
-0.02435302734375
-0.053802490234375
-0.074493408203125
-0.09063720703125
-0.10150146484375
-0.106719970703125
-0.107696533203125
-0.1043701171875
-0.0975341796875
-0.0892333984375
-0.081695556640625
-0.07391357421875
-0.068695068359375
-0.06707763671875
-0.066986083984375
-0.06817626953125
-0.071624755859375
-0.07611083984375
-0.080078125
-0.0831298828125
-0.08465576171875
-0.08416748046875
-0.08026123046875
-0.074676513671875
-0.06719970703125
-0.056182861328125
-0.044403076171875
-0.032928466796875
-0.021881103515625
-0.01220703125
-0.003448486328125
0.003204345703125
0.00750732421875
0.010833740234375
0.01055908203125
0.0087890625
0.0086669921875
0.00775146484375
0.006866455078125
0.005584716796875
0.003662109375
0.001190185546875
-0.002655029296875
-0.005340576171875
-0.004608154296875
-0.00360107421875
-0.00384521484375
-0.0029296875
-0.0018310546875
-0.000640869140625
0.002105712890625
0.004486083984375
0.0048828125
0.005584716796875
0.006683349609375
0.007659912109375
0.00836181640625
0.009185791015625
0.0103759765625
0.01080322265625
0.01165771484375
0.0120849609375
0.011993408203125
0.01312255859375
0.014007568359375
0.013702392578125
0.013458251953125
0.013031005859375
0.01226806640625
0.011566162109375
0.010101318359375
0.008819580078125
0.008270263671875
0.006805419921875
0.005523681640625
0.005706787109375
0.005279541015625
0.004180908203125
0.0029296875
0.001739501953125
0.00140380859375
0.000823974609375
-0.000335693359375
-0.001129150390625
-0.001220703125
-0.001495361328125
-0.001220703125
-0.000396728515625
-9.1552734375e-05
0.000274658203125
0.000518798828125
0.000640869140625
0.000762939453125
0.000762939453125
0.00018310546875
-0.000274658203125
3.0517578125e-05
-0.0006103515625
-0.001068115234375
-0.00067138671875
-0.00018310546875
0.000213623046875
-0.000732421875
-0.001861572265625
-0.00250244140625
-0.002685546875
-0.0010986328125
0.003204345703125
0.01171875
0.024261474609375
0.04071044921875
0.06591796875
0.0906982421875
0.10247802734375
0.1156005859375
0.1337890625
0.146636962890625
0.153961181640625
0.15570068359375
0.148895263671875
0.1278076171875
0.098052978515625
0.067352294921875
0.032440185546875
-0.002349853515625
-0.03045654296875
-0.05560302734375
-0.077484130859375
-0.093780517578125
-0.104736328125
-0.1097412109375
-0.1102294921875
-0.106292724609375
-0.09918212890625
-0.090972900390625
-0.081817626953125
-0.073883056640625
-0.06787109375
-0.061859130859375
-0.05755615234375
-0.0565185546875
-0.056121826171875
-0.05731201171875
-0.062347412109375
-0.068359375
-0.074249267578125
-0.080078125
-0.084259033203125
-0.08636474609375
-0.084625244140625
-0.078887939453125
-0.0716552734375
-0.063323974609375
-0.052886962890625
-0.0411376953125
-0.029815673828125
-0.018524169921875
-0.00799560546875
0.000457763671875
0.006439208984375
0.010345458984375
0.01434326171875
0.017333984375
0.016357421875
0.013153076171875
0.0115966796875
0.008758544921875
0.0042724609375
0.00311279296875
0.00201416015625
-0.001190185546875
-0.004241943359375
-0.00494384765625
-0.00457763671875
-0.004913330078125
-0.010498046875
-0.024139404296875
-0.03070068359375
-0.028045654296875
-0.024139404296875
-0.018951416015625
-0.014984130859375
-0.01031494140625
-0.0045166015625
0.000732421875
0.005096435546875
0.009033203125
0.012847900390625
0.01544189453125
0.018035888671875
0.0203857421875
0.021759033203125
0.021514892578125
0.02166748046875
0.02276611328125
0.021484375
0.020416259765625
0.02008056640625
0.01885986328125
0.018402099609375
0.01806640625
0.016693115234375
0.014892578125
0.0133056640625
0.011688232421875
0.010101318359375
0.008636474609375
0.0072021484375
0.0064697265625
0.005615234375
0.004669189453125
0.005096435546875
0.0050048828125
0.003509521484375
0.002685546875
0.002471923828125
0.00140380859375
0.0006103515625
0.000640869140625
0.00030517578125
6.103515625e-05
0.000457763671875
0.000579833984375
0.00115966796875
0.0028076171875
0.003662109375
0.003753662109375
0.002838134765625
0.002105712890625
0.001708984375
0.000396728515625
-0.0003662109375
-0.000518798828125
0.00146484375
0.00616455078125
0.01300048828125
0.02288818359375
0.037078857421875
0.055938720703125
0.07843017578125
0.10308837890625
0.126922607421875
0.1473388671875
0.16253662109375
0.170135498046875
0.16864013671875
0.15753173828125
0.136810302734375
0.1082763671875
0.074432373046875
0.03863525390625
0.0042724609375
-0.027496337890625
-0.056365966796875
-0.081268310546875
-0.100982666015625
-0.1142578125
-0.121124267578125
-0.123046875
-0.1199951171875
-0.113525390625
-0.10552978515625
-0.0958251953125
-0.084381103515625
-0.072967529296875
-0.06329345703125
-0.05633544921875
-0.052734375
-0.052734375
-0.05560302734375
-0.060089111328125
-0.066802978515625
-0.073394775390625
-0.076934814453125
-0.07794189453125
-0.077301025390625
-0.075225830078125
-0.070770263671875
-0.063507080078125
-0.054351806640625
-0.043731689453125
-0.032501220703125
-0.020965576171875
-0.01025390625
-0.00164794921875
0.0057373046875
0.01116943359375
0.01495361328125
0.016998291015625
0.016754150390625
0.015594482421875
0.013458251953125
0.009857177734375
0.00653076171875
0.002655029296875
-0.00128173828125
-0.00408935546875
-0.006195068359375
-0.006134033203125
-0.00640869140625
-0.0074462890625
-0.007110595703125
-0.006561279296875
-0.005584716796875
-0.00360107421875
-0.001708984375
0.000274658203125
0.0030517578125
0.005523681640625
0.007293701171875
0.009307861328125
0.0118408203125
0.014007568359375
0.015411376953125
0.015838623046875
0.016510009765625
0.01800537109375
0.018463134765625
0.018585205078125
0.018524169921875
0.01739501953125
0.016387939453125
0.016448974609375
0.0164794921875
0.01544189453125
0.013946533203125
0.012603759765625
0.01123046875
0.00982666015625
0.007965087890625
0.00628662109375
0.004913330078125
0.003448486328125
0.00286865234375
0.002685546875
0.002288818359375
0.00250244140625
0.0025634765625
0.00177001953125
0.001373291015625
0.0003662109375
-0.000518798828125
-0.0015869140625
-0.002716064453125
-0.002716064453125
-0.00311279296875
-0.003936767578125
-0.00384521484375
-0.002685546875
-0.0020751953125
-0.002166748046875
-0.0025634765625
-0.00286865234375
-0.0035400390625
-0.004150390625
-0.003814697265625
-0.00384521484375
-0.002105712890625
0.00323486328125
0.011627197265625
0.02252197265625
0.03521728515625
0.05279541015625
0.075286865234375
0.09881591796875
0.122100830078125
0.142242431640625
0.156982421875
0.16400146484375
0.16143798828125
0.150421142578125
0.130279541015625
0.102081298828125
0.06927490234375
0.03546142578125
0.003082275390625
-0.0283203125
-0.056640625
-0.08026123046875
-0.098846435546875
-0.11102294921875
-0.117279052734375
-0.118011474609375
-0.114227294921875
-0.106719970703125
-0.09844970703125
-0.090576171875
-0.081207275390625
-0.07196044921875
-0.064666748046875
-0.05950927734375
-0.057342529296875
-0.057403564453125
-0.06036376953125
-0.0657958984375
-0.07098388671875
-0.076080322265625
-0.0794677734375
-0.079071044921875
-0.07757568359375
-0.074981689453125
-0.069183349609375
-0.06121826171875
-0.05145263671875
-0.04083251953125
-0.029693603515625
-0.019195556640625
-0.0106201171875
-0.002593994140625
0.0040283203125
0.0086669921875
0.01214599609375
0.013092041015625
0.012847900390625
0.011749267578125
0.0087890625
0.00616455078125
0.00341796875
0.000335693359375
-0.001953125
-0.00457763671875
-0.006683349609375
-0.0064697265625
-0.005615234375
-0.005218505859375
-0.0052490234375
-0.004669189453125
-0.003509521484375
-0.002899169921875
-0.00164794921875
0.005523681640625
0.019500732421875
0.027099609375
0.027099609375
0.026947021484375
0.025634765625
0.02423095703125
0.022796630859375
0.020416259765625
0.01776123046875
0.015350341796875
0.013031005859375
0.011383056640625
0.010345458984375
0.009002685546875
0.0072021484375
0.005645751953125
0.005462646484375
0.0048828125
0.004119873046875
0.00311279296875
0.00140380859375
0.00091552734375
-0.0003662109375
-0.00152587890625
-0.002105712890625
-0.003631591796875
-0.00390625
-0.00421142578125
-0.004730224609375
-0.003631591796875
-0.0025634765625
-0.001861572265625
-0.001678466796875
-0.00213623046875
-0.00225830078125
-0.0018310546875
-0.001617431640625
-0.00152587890625
-0.000762939453125
-0.00091552734375
-0.001068115234375
-0.000335693359375
0.000396728515625
0.001007080078125
0.00079345703125
0.000732421875
0.000152587890625
-0.00048828125
-0.000732421875
-0.0018310546875
-0.00244140625
-0.00238037109375
-0.00140380859375
0.000946044921875
0.005859375
0.013214111328125
0.023712158203125
0.03973388671875
0.059051513671875
0.080780029296875
0.10357666015625
0.1236572265625
0.13995361328125
0.1492919921875
0.15032958984375
0.143951416015625
0.127838134765625
0.103546142578125
0.0762939453125
0.047637939453125
0.018310546875
-0.0103759765625
-0.037261962890625
-0.05950927734375
-0.0775146484375
-0.09112548828125
-0.09869384765625
-0.102081298828125
-0.10107421875
-0.096954345703125
-0.09173583984375
-0.0843505859375
-0.075592041015625
-0.066619873046875
-0.058258056640625
-0.052276611328125
-0.048980712890625
-0.048858642578125
-0.051300048828125
-0.055023193359375
-0.060760498046875
-0.066131591796875
-0.06951904296875
-0.073272705078125
-0.076690673828125
-0.077301025390625
-0.07574462890625
-0.07208251953125
-0.065277099609375
-0.055999755859375
-0.0452880859375
-0.03466796875
-0.02337646484375
-0.0128173828125
-0.004425048828125
0.003509521484375
0.009246826171875
0.012664794921875
0.0152587890625
0.015411376953125
0.013824462890625
0.012298583984375
0.0101318359375
0.007110595703125
0.004150390625
0.001708984375
9.1552734375e-05
-0.000213623046875
-0.000823974609375
-0.00262451171875
-0.003753662109375
-0.003448486328125
-0.00360107421875
-0.003753662109375
-0.00311279296875
-0.002288818359375
-0.0010986328125
0.000335693359375
0.002471923828125
0.005157470703125
0.0074462890625
0.00860595703125
0.00946044921875
0.010772705078125
0.010772705078125
0.01068115234375
0.01123046875
0.011077880859375
0.01141357421875
0.011444091796875
0.011016845703125
0.01129150390625
0.0115966796875
0.012115478515625
0.011688232421875
0.010498046875
0.00970458984375
0.008087158203125
0.0067138671875
0.00616455078125
0.004669189453125
0.002899169921875
0.002166748046875
0.001861572265625
0.001922607421875
0.002471923828125
0.0020751953125
0.001190185546875
0.0001220703125
-0.000885009765625
-0.00152587890625
-0.002288818359375
-0.002197265625
-0.001708984375
-0.000946044921875
-0.000335693359375
0.0
0.0009765625
0.002105712890625
0.002288818359375
0.00189208984375
0.00177001953125
0.001495361328125
0.001220703125
0.0009765625
0.00067138671875
0.00042724609375
-0.00042724609375
-0.001068115234375
-0.000335693359375
-0.0001220703125
-0.000640869140625
-0.00018310546875
0.00225830078125
0.00830078125
0.018524169921875
0.03271484375
0.051055908203125
0.072265625
0.093780517578125
0.11395263671875
0.1280517578125
0.132354736328125
0.133148193359375
0.13201904296875
0.123291015625
0.107330322265625
0.08575439453125
0.059417724609375
0.031005859375
0.001953125
-0.025146484375
-0.04876708984375
-0.06817626953125
-0.082611083984375
-0.0926513671875
-0.098175048828125
-0.0994873046875
-0.09625244140625
-0.0899658203125
-0.081390380859375
-0.071685791015625
-0.063201904296875
-0.055572509765625
-0.050018310546875
-0.04669189453125
-0.045989990234375
-0.04766845703125
-0.05084228515625
-0.055694580078125
-0.061492919921875
-0.06768798828125
-0.072357177734375
-0.075531005859375
-0.0771484375
-0.07550048828125
-0.0711669921875
-0.06488037109375
-0.056182861328125
-0.045928955078125
-0.035064697265625
-0.02484130859375
-0.015655517578125
-0.0078125
-0.001861572265625
0.002716064453125
0.00604248046875
0.00762939453125
0.00787353515625
0.0076904296875
0.00628662109375
0.005126953125
0.0048828125
0.0035400390625
0.002532958984375
0.001190185546875
-0.000732421875
-0.001953125
-0.00262451171875
-0.003204345703125
-0.00323486328125
-0.00262451171875
-0.002471923828125
-0.00103759765625
0.0010986328125
0.001190185546875
-0.001312255859375
-0.00274658203125
-0.001373291015625
0.00054931640625
0.00244140625
0.004364013671875
0.006378173828125
0.008331298828125
0.01031494140625
0.01104736328125
0.011505126953125
0.0130615234375
0.014251708984375
0.0142822265625
0.01312255859375
0.012115478515625
0.01177978515625
0.010986328125
0.01019287109375
0.0093994140625
0.009033203125
0.008575439453125
0.008392333984375
0.009368896484375
0.00897216796875
0.00799560546875
0.006866455078125
0.005584716796875
0.004669189453125
0.00299072265625
0.002349853515625
0.002288818359375
0.00177001953125
0.00152587890625
0.00115966796875
0.00140380859375
0.00262451171875
0.003265380859375
0.00250244140625
0.001617431640625
0.0009765625
0.00030517578125
-0.000244140625
-0.000732421875
-0.00115966796875
-0.000946044921875
-0.000885009765625
-0.00042724609375
0.0018310546875
0.00250244140625
0.001220703125
0.000335693359375
-0.001068115234375
-0.002197265625
-0.00238037109375
-0.00054931640625
0.004669189453125
0.01361083984375
0.0277099609375
0.0435791015625
0.059600830078125
0.07940673828125
0.102081298828125
0.123504638671875
0.141021728515625
0.151824951171875
0.15411376953125
0.14849853515625
0.133758544921875
0.110870361328125
0.082275390625
0.04986572265625
0.01727294921875
-0.013519287109375
-0.0416259765625
-0.067291259765625
-0.08770751953125
-0.10198974609375
-0.11138916015625
-0.114349365234375
-0.112518310546875
-0.10687255859375
-0.0970458984375
-0.085601806640625
-0.07489013671875
-0.065460205078125
-0.05645751953125
-0.04864501953125
-0.04376220703125
-0.041900634765625
-0.043548583984375
-0.047393798828125
-0.05230712890625
-0.058013916015625
-0.062896728515625
-0.06634521484375
-0.067047119140625
-0.064544677734375
-0.058746337890625
-0.0513916015625
-0.04296875
-0.033203125
-0.02362060546875
-0.014404296875
-0.0062255859375
0.0010986328125
0.006561279296875
0.009765625
0.0115966796875
0.012451171875
0.013153076171875
0.012298583984375
0.009765625
0.006317138671875
0.0029296875
0.00030517578125
-0.003265380859375
-0.0059814453125
-0.007415771484375
-0.009002685546875
-0.00946044921875
-0.00927734375
-0.0081787109375
-0.006072998046875
-0.00469970703125
-0.003448486328125
-0.001708984375
-0.00048828125
0.00048828125
0.00250244140625
0.00439453125
0.005584716796875
0.00726318359375
0.008880615234375
0.010467529296875
0.012115478515625
0.013092041015625
0.013092041015625
0.012451171875
0.01239013671875
0.01263427734375
0.012298583984375
0.01251220703125
0.012359619140625
0.0118408203125
0.011993408203125
0.011627197265625
0.01165771484375
0.0120849609375
0.01129150390625
0.01007080078125
0.0096435546875
0.008941650390625
0.008026123046875
0.007354736328125
0.00640869140625
0.0062255859375
0.005767822265625
0.005157470703125
0.005279541015625
0.005035400390625
0.004669189453125
0.00439453125
0.00335693359375
0.003143310546875
0.002899169921875
0.001129150390625
0.0001220703125
-0.000732421875
-0.00286865234375
-0.004791259765625
-0.006195068359375
-0.0074462890625
-0.007781982421875
-0.008087158203125
-0.00726318359375
-0.00360107421875
0.00262451171875
0.012664794921875
0.0264892578125
0.043975830078125
0.064300537109375
0.084625244140625
0.103546142578125
0.11572265625
0.118255615234375
0.11859130859375
0.116485595703125
0.106597900390625
0.090301513671875
0.068511962890625
0.04229736328125
0.015380859375
-0.01116943359375
-0.03643798828125
-0.057708740234375
-0.074462890625
-0.086883544921875
-0.09503173828125
-0.097869873046875
-0.096527099609375
-0.092559814453125
-0.085357666015625
-0.07586669921875
-0.066436767578125
-0.057861328125
-0.050323486328125
-0.04498291015625
-0.042938232421875
-0.042755126953125
-0.043487548828125
-0.046661376953125
-0.05133056640625
-0.055908203125
-0.060272216796875
-0.06329345703125
-0.06414794921875
-0.06304931640625
-0.05914306640625
-0.05267333984375
-0.0438232421875
-0.034698486328125
-0.026092529296875
-0.017303466796875
-0.0096435546875
-0.00262451171875
0.002593994140625
0.00567626953125
0.008026123046875
0.008697509765625
0.00750732421875
0.00628662109375
0.00469970703125
0.002044677734375
0.0001220703125
-0.000946044921875
-0.0032958984375
-0.005584716796875
-0.007080078125
-0.00860595703125
-0.009613037109375
-0.010406494140625
-0.00982666015625
-0.008819580078125
-0.008270263671875
-0.0074462890625
-0.006256103515625
-0.004119873046875
-0.00146484375
0.001007080078125
0.002960205078125
0.004486083984375
0.005706787109375
0.006561279296875
0.007720947265625
0.01641845703125
0.03472900390625
0.044189453125
0.0418701171875
0.039154052734375
0.03460693359375
0.02984619140625
0.02532958984375
0.020172119140625
0.014892578125
0.010162353515625
0.00628662109375
0.00201416015625
-0.0013427734375
-0.004119873046875
-0.006011962890625
-0.00689697265625
-0.007904052734375
-0.00799560546875
-0.008056640625
-0.009368896484375
-0.010528564453125
-0.010650634765625
-0.010833740234375
-0.01092529296875
-0.0107421875
-0.0106201171875
-0.00970458984375
-0.00897216796875
-0.0078125
-0.006072998046875
-0.004974365234375
-0.00439453125
-0.00384521484375
-0.002685546875
-0.001922607421875
-0.0013427734375
-0.001312255859375
-0.001922607421875
-0.001556396484375
-0.001434326171875
-0.002105712890625
-0.001739501953125
-0.001068115234375
-0.0013427734375
-0.00140380859375
0.00091552734375
0.005706787109375
0.013275146484375
0.025390625
0.04156494140625
0.060546875
0.081817626953125
0.10284423828125
0.117340087890625
0.12347412109375
0.1280517578125
0.130615234375
0.12530517578125
0.112213134765625
0.092803955078125
0.06890869140625
0.042144775390625
0.014312744140625
-0.012420654296875
-0.036590576171875
-0.056884765625
-0.072235107421875
-0.083648681640625
-0.090545654296875
-0.092315673828125
-0.090484619140625
-0.084716796875
-0.0765380859375
-0.067718505859375
-0.05902099609375
-0.051116943359375
-0.044281005859375
-0.039581298828125
-0.0382080078125
-0.039215087890625
-0.04150390625
-0.045806884765625
-0.051483154296875
-0.0574951171875
-0.063507080078125
-0.068817138671875
-0.072509765625
-0.073822021484375
-0.072357177734375
-0.068145751953125
-0.06134033203125
-0.05194091796875
-0.041839599609375
-0.031707763671875
-0.021240234375
-0.0115966796875
-0.0030517578125
0.003997802734375
0.00860595703125
0.01080322265625
0.01171875
0.011383056640625
0.009857177734375
0.008148193359375
0.006622314453125
0.004638671875
0.001739501953125
-0.0009765625
-0.003173828125
-0.005645751953125
-0.007568359375
-0.0084228515625
-0.00933837890625
-0.0093994140625
-0.009368896484375
-0.00836181640625
-0.005615234375
-0.0040283203125
-0.002593994140625
-0.001190185546875
-0.000335693359375
0.000579833984375
0.001708984375
0.00311279296875
0.00396728515625
0.00518798828125
0.006072998046875
0.006439208984375
0.008026123046875
0.00994873046875
0.01104736328125
0.01123046875
0.0107421875
0.01025390625
0.009674072265625
0.008880615234375
0.008148193359375
0.007293701171875
0.007049560546875
0.006011962890625
0.00494384765625
0.004852294921875
0.00421142578125
0.003692626953125
0.00262451171875
0.00164794921875
0.001556396484375
0.0010986328125
0.0001220703125
-0.000579833984375
-0.001190185546875
-0.00177001953125
-0.00164794921875
-0.0010986328125
0.000274658203125
0.001251220703125
0.000640869140625
-3.0517578125e-05
6.103515625e-05
-6.103515625e-05
-0.000885009765625
-0.000762939453125
-0.00079345703125
-0.001068115234375
-0.000457763671875
0.000274658203125
0.000762939453125
0.00054931640625
0.00042724609375
-0.00018310546875
-0.000823974609375
-0.0010986328125
-0.00164794921875
-0.00018310546875
0.002960205078125
0.008758544921875
0.018585205078125
0.03125
0.04522705078125
0.05889892578125
0.075531005859375
0.095001220703125
0.111602783203125
0.1240234375
0.130828857421875
0.129974365234375
0.12164306640625
0.105010986328125
0.08343505859375
0.058074951171875
0.029754638671875
0.00299072265625
-0.0220947265625
-0.045135498046875
-0.06414794921875
-0.077850341796875
-0.086700439453125
-0.091705322265625
-0.09197998046875
-0.088043212890625
-0.081512451171875
-0.072601318359375
-0.062957763671875
-0.055084228515625
-0.048675537109375
-0.0428466796875
-0.038482666015625
-0.0369873046875
-0.03802490234375
-0.04095458984375
-0.045623779296875
-0.051544189453125
-0.05792236328125
-0.0634765625
-0.067474365234375
-0.068603515625
-0.066497802734375
-0.062652587890625
-0.057281494140625
-0.0499267578125
-0.041351318359375
-0.031829833984375
-0.0216064453125
-0.01275634765625
-0.00543212890625
0.000946044921875
0.0054931640625
0.00872802734375
0.01031494140625
0.0103759765625
0.01007080078125
0.00848388671875
0.00543212890625
0.002685546875
-0.000152587890625
-0.003204345703125
-0.005462646484375
-0.0068359375
-0.008026123046875
-0.0096435546875
-0.009521484375
-0.008331298828125
-0.0078125
-0.007110595703125
-0.0064697265625
-0.005401611328125
-0.004486083984375
-0.003875732421875
-0.001983642578125
-0.00018310546875
0.001007080078125
0.002166748046875
0.00347900390625
0.005584716796875
0.00750732421875
0.00079345703125
-0.0162353515625
-0.02484130859375
-0.022369384765625
-0.019775390625
-0.01519775390625
-0.010284423828125
-0.006256103515625
-0.002410888671875
0.00042724609375
0.004150390625
0.0074462890625
0.00970458984375
0.0111083984375
0.0108642578125
0.010833740234375
0.011260986328125
0.010498046875
0.009857177734375
0.009857177734375
0.00933837890625
0.008819580078125
0.0093994140625
0.010589599609375
0.01043701171875
0.009674072265625
0.009185791015625
0.00787353515625
0.006744384765625
0.00640869140625
0.005096435546875
0.004608154296875
0.004791259765625
0.003753662109375
0.00372314453125
0.00469970703125
0.0054931640625
0.006072998046875
0.00579833984375
0.0050048828125
0.004425048828125
0.004364013671875
0.004119873046875
0.0025634765625
0.000946044921875
-0.000823974609375
-0.00238037109375
-0.0023193359375
-0.0020751953125
-0.00152587890625
0.000732421875
0.00494384765625
0.012908935546875
0.02569580078125
0.04339599609375
0.06585693359375
0.0904541015625
0.11492919921875
0.137298583984375
0.15435791015625
0.1607666015625
0.1553955078125
0.145294189453125
0.130767822265625
0.108489990234375
0.08062744140625
0.049072265625
0.01513671875
-0.0179443359375
-0.047393798828125
-0.071929931640625
-0.0911865234375
-0.104949951171875
-0.11224365234375
-0.114501953125
-0.112091064453125
-0.104949951171875
-0.0950927734375
-0.083343505859375
-0.071136474609375
-0.059814453125
-0.050689697265625
-0.044464111328125
-0.0408935546875
-0.04132080078125
-0.044219970703125
-0.04827880859375
-0.05462646484375
-0.061004638671875
-0.067626953125
-0.073577880859375
-0.0767822265625
-0.077484130859375
-0.074249267578125
-0.0682373046875
-0.060211181640625
-0.050140380859375
-0.03955078125
-0.028289794921875
-0.0172119140625
-0.0076904296875
0.000335693359375
0.005828857421875
0.008758544921875
0.0103759765625
0.010589599609375
0.009033203125
0.006256103515625
0.003570556640625
0.000823974609375
-0.001617431640625
-0.00286865234375
-0.00482177734375
-0.007476806640625
-0.0103759765625
-0.01312255859375
-0.015045166015625
-0.016021728515625
-0.01611328125
-0.015655517578125
-0.014556884765625
-0.01361083984375
-0.010986328125
-0.007110595703125
-0.005126953125
-0.00311279296875
-9.1552734375e-05
0.00189208984375
0.0029296875
0.004547119140625
0.006805419921875
0.008209228515625
0.009185791015625
0.010589599609375
0.010711669921875
0.011260986328125
0.0128173828125
0.0133056640625
0.013031005859375
0.01275634765625
0.012847900390625
0.011993408203125
0.010498046875
0.009979248046875
0.009674072265625
0.009033203125
0.007843017578125
0.007354736328125
0.008544921875
0.008819580078125
0.007659912109375
0.006439208984375
0.005340576171875
0.00372314453125
0.002349853515625
0.00128173828125
0.0001220703125
-0.000732421875
-0.00152587890625
-0.001617431640625
-0.001190185546875
3.0517578125e-05
0.00152587890625
0.001800537109375
0.001678466796875
0.001678466796875
0.001556396484375
0.00140380859375
0.001251220703125
0.00103759765625
0.000823974609375
3.0517578125e-05
0.0
0.00115966796875
0.001556396484375
0.001373291015625
0.00079345703125
-0.000244140625
-0.0009765625
-0.001007080078125
-0.001220703125
-0.00030517578125
0.00323486328125
0.009307861328125
0.01971435546875
0.0330810546875
0.047760009765625
0.06689453125
0.090362548828125
0.114593505859375
0.136444091796875
0.153167724609375
0.16278076171875
0.16351318359375
0.154205322265625
0.135589599609375
0.1099853515625
0.0787353515625
0.04437255859375
0.010162353515625
-0.02301025390625
-0.0533447265625
-0.078704833984375
-0.09912109375
-0.113555908203125
-0.12066650390625
-0.1217041015625
-0.117767333984375
-0.10894775390625
-0.097015380859375
-0.084869384765625
-0.0738525390625
-0.06231689453125
-0.05133056640625
-0.042999267578125
-0.037841796875
-0.03759765625
-0.040374755859375
-0.04486083984375
-0.0509033203125
-0.05706787109375
-0.062713623046875
-0.06549072265625
-0.064697265625
-0.062042236328125
-0.0576171875
-0.05047607421875
-0.0416259765625
-0.03204345703125
-0.022308349609375
-0.0125732421875
-0.00457763671875
0.0013427734375
0.006683349609375
0.010223388671875
0.011962890625
0.011810302734375
0.010009765625
0.007659912109375
0.005126953125
0.001861572265625
-0.001922607421875
-0.005279541015625
-0.00860595703125
-0.011199951171875
-0.01373291015625
-0.016326904296875
-0.016815185546875
-0.015594482421875
-0.014892578125
-0.014129638671875
-0.01312255859375
-0.012359619140625
-0.010223388671875
-0.008026123046875
-0.005859375
0.001861572265625
0.015167236328125
0.0225830078125
0.023193359375
0.0244140625
0.023651123046875
0.0208740234375
0.01788330078125
0.014984130859375
0.0130615234375
0.01092529296875
0.009490966796875
0.008697509765625
0.008087158203125
0.00750732421875
0.006683349609375
0.006591796875
0.00732421875
0.007537841796875
0.006866455078125
0.0064697265625
0.00537109375
0.004913330078125
0.00457763671875
0.003204345703125
0.003021240234375
0.003692626953125
0.003814697265625
0.00384521484375
0.005035400390625
0.005615234375
0.005218505859375
0.00518798828125
0.004302978515625
0.00299072265625
0.0020751953125
0.001129150390625
0.0008544921875
0.000518798828125
-0.00054931640625
-0.001190185546875
-0.001190185546875
-0.000823974609375
-0.001800537109375
-0.00311279296875
-0.003692626953125
-0.0045166015625
-0.002685546875
0.001312255859375
0.008148193359375
0.020599365234375
0.03619384765625
0.055450439453125
0.0743408203125
0.0888671875
0.106781005859375
0.126220703125
0.140838623046875
0.14910888671875
0.148162841796875
0.138397216796875
0.11962890625
0.093231201171875
0.062042236328125
0.02838134765625
-0.005157470703125
-0.03643798828125
-0.0633544921875
-0.0863037109375
-0.10345458984375
-0.114471435546875
-0.119903564453125
-0.11962890625
-0.115203857421875
-0.1070556640625
-0.096588134765625
-0.08428955078125
-0.07269287109375
-0.0640869140625
-0.057586669921875
-0.053192138671875
-0.050567626953125
-0.050018310546875
-0.0517578125
-0.054534912109375
-0.058319091796875
-0.062469482421875
-0.064971923828125
-0.065521240234375
-0.0640869140625
-0.060516357421875
-0.054229736328125
-0.0458984375
-0.037384033203125
-0.028350830078125
-0.019561767578125
-0.0118408203125
-0.005218505859375
0.000213623046875
0.00421142578125
0.00634765625
0.00714111328125
0.005615234375
0.00396728515625
0.00299072265625
0.000396728515625
-0.00189208984375
-0.004791259765625
-0.0078125
-0.009796142578125
-0.01165771484375
-0.011810302734375
-0.012054443359375
-0.01300048828125
-0.01312255859375
-0.01275634765625
-0.011199951171875
-0.008880615234375
-0.0072021484375
-0.0057373046875
-0.0037841796875
-0.001800537109375
0.00030517578125
0.001922607421875
0.00311279296875
0.004150390625
0.005340576171875
0.00677490234375
0.00811767578125
0.0096435546875
0.0111083984375
0.01202392578125
0.011932373046875
0.011810302734375
0.010955810546875
0.009979248046875
0.009796142578125
0.008514404296875
0.00738525390625
0.007110595703125
0.006317138671875
0.006195068359375
0.00592041015625
0.00531005859375
0.004974365234375
0.00433349609375
0.00384521484375
0.002105712890625
0.000762939453125
-0.000152587890625
-0.001922607421875
-0.002410888671875
-0.002410888671875
-0.002166748046875
-0.00128173828125
-0.000885009765625
-0.00048828125
-0.000152587890625
0.000579833984375
0.001129150390625
0.000762939453125
0.000701904296875
0.00054931640625
0.000274658203125
0.000152587890625
-0.0001220703125
0.000274658203125
0.001007080078125
0.00079345703125
0.0001220703125
-0.00079345703125
-0.002197265625
-0.00311279296875
-0.002777099609375
0.000701904296875
0.008026123046875
0.019012451171875
0.03515625
0.053131103515625
0.069976806640625
0.090423583984375
0.114227294921875
0.136016845703125
0.152008056640625
0.16107177734375
0.161590576171875
0.15240478515625
0.134613037109375
0.1087646484375
0.078094482421875
0.04486083984375
0.011077880859375
-0.02032470703125
-0.048370361328125
-0.071746826171875
-0.089447021484375
-0.1014404296875
-0.107574462890625
-0.107757568359375
-0.10382080078125
-0.09649658203125
-0.0860595703125
-0.075347900390625
-0.065643310546875
-0.0582275390625
-0.051513671875
-0.04534912109375
-0.042694091796875
-0.043121337890625
-0.0465087890625
-0.05181884765625
-0.05853271484375
-0.066680908203125
-0.073822021484375
-0.079925537109375
-0.08319091796875
-0.08221435546875
-0.0799560546875
-0.075439453125
-0.06781005859375
-0.057952880859375
-0.046661376953125
-0.035003662109375
-0.023468017578125
-0.013397216796875
-0.00494384765625
0.00164794921875
0.0059814453125
0.009185791015625
0.010711669921875
0.01068115234375
0.009765625
0.007110595703125
0.004638671875
0.002105712890625
-0.001434326171875
-0.0045166015625
-0.007568359375
-0.01007080078125
-0.011322021484375
-0.011962890625
-0.011322021484375
-0.010284423828125
-0.009613037109375
-0.008758544921875
-0.008087158203125
-0.00628662109375
-0.0042724609375
-0.00299072265625
-0.001068115234375
0.0008544921875
0.002777099609375
0.004852294921875
0.007415771484375
0.00982666015625
0.0113525390625
3.0517578125e-05
-0.026641845703125
-0.03997802734375
-0.0367431640625
-0.03228759765625
-0.0244140625
-0.016510009765625
-0.009490966796875
-0.001861572265625
0.004302978515625
0.01007080078125
0.014556884765625
0.017364501953125
0.019134521484375
0.019744873046875
0.01953125
0.019683837890625
0.019439697265625
0.018646240234375
0.01800537109375
0.01690673828125
0.015838623046875
0.01519775390625
0.01544189453125
0.014556884765625
0.012908935546875
0.01239013671875
0.0113525390625
0.01025390625
0.0098876953125
0.009674072265625
0.00927734375
0.008148193359375
0.0072021484375
0.00634765625
0.006500244140625
0.0064697265625
0.004791259765625
0.00445556640625
0.003936767578125
0.00250244140625
0.0023193359375
0.001251220703125
-0.00030517578125
-0.00115966796875
-0.002166748046875
-0.001190185546875
0.00164794921875
0.00604248046875
0.014373779296875
0.02679443359375
0.043121337890625
0.064727783203125
0.089324951171875
0.114044189453125
0.137237548828125
0.15594482421875
0.167510986328125
0.16961669921875
0.160858154296875
0.14093017578125
0.116241455078125
0.08856201171875
0.056884765625
0.02423095703125
-0.008392333984375
-0.038238525390625
-0.06402587890625
-0.084442138671875
-0.098419189453125
-0.106414794921875
-0.108673095703125
-0.106964111328125
-0.102935791015625
-0.095550537109375
-0.084991455078125
-0.074249267578125
-0.063385009765625
-0.054046630859375
-0.04791259765625
-0.044189453125
-0.043975830078125
-0.04693603515625
-0.052215576171875
-0.058441162109375
-0.0648193359375
-0.07220458984375
-0.078857421875
-0.08380126953125
-0.08612060546875
-0.085601806640625
-0.0821533203125
-0.074920654296875
-0.065826416015625
-0.054534912109375
-0.0419921875
-0.0301513671875
-0.019378662109375
-0.009796142578125
-0.0010986328125
0.00592041015625
0.010528564453125
0.01324462890625
0.013916015625
0.0126953125
0.010833740234375
0.007476806640625
0.003692626953125
0.00030517578125
-0.002716064453125
-0.003936767578125
-0.0052490234375
-0.007659912109375
-0.008544921875
-0.00927734375
-0.010162353515625
-0.009796142578125
-0.009796142578125
-0.009063720703125
-0.007781982421875
-0.006439208984375
-0.00457763671875
-0.00213623046875
0.001495361328125
0.005157470703125
0.007781982421875
0.008758544921875
0.009613037109375
0.01092529296875
0.010833740234375
0.010772705078125
0.011260986328125
0.0111083984375
0.010833740234375
0.0115966796875
0.01348876953125
0.014404296875
0.01422119140625
0.013641357421875
0.01226806640625
0.011138916015625
0.0093994140625
0.00775146484375
0.0064697265625
0.004974365234375
0.00439453125
0.003631591796875
0.0028076171875
0.00335693359375
0.00341796875
0.002044677734375
0.0013427734375
0.00067138671875
-0.0001220703125
-0.000579833984375
-0.001190185546875
-0.0015869140625
-0.00140380859375
-0.001312255859375
-0.000823974609375
0.000823974609375
0.00225830078125
0.003326416015625
0.0030517578125
0.00286865234375
0.002960205078125
0.0025634765625
0.002471923828125
0.00213623046875
0.00189208984375
0.0015869140625
0.00128173828125
0.0009765625
0.001800537109375
0.002288818359375
0.001190185546875
-0.0003662109375
-0.0015869140625
-0.00189208984375
-0.000701904296875
0.00347900390625
0.011199951171875
0.023193359375
0.0399169921875
0.05828857421875
0.074951171875
0.094512939453125
0.117889404296875
0.138580322265625
0.15313720703125
0.16070556640625
0.1588134765625
0.146820068359375
0.126495361328125
0.0987548828125
0.06671142578125
0.03240966796875
-0.001434326171875
-0.032806396484375
-0.06072998046875
-0.08306884765625
-0.10052490234375
-0.111541748046875
-0.115325927734375
-0.11407470703125
-0.10809326171875
-0.098968505859375
-0.087860107421875
-0.075531005859375
-0.065277099609375
-0.057464599609375
-0.04998779296875
-0.044219970703125
-0.040924072265625
-0.041534423828125
-0.045806884765625
-0.05133056640625
-0.058502197265625
-0.066314697265625
-0.073272705078125
-0.0782470703125
-0.079345703125
-0.0772705078125
-0.072784423828125
-0.066619873046875
-0.05816650390625
-0.047210693359375
-0.036102294921875
-0.023895263671875
-0.012664794921875
-0.004364013671875
0.003143310546875
0.0086669921875
0.011932373046875
0.013763427734375
0.01397705078125
0.0130615234375
0.010589599609375
0.00689697265625
0.00299072265625
-0.0013427734375
-0.0047607421875
-0.007476806640625
-0.00994873046875
-0.011077880859375
-0.012176513671875
-0.012451171875
-0.011260986328125
-0.01007080078125
-0.009002685546875
-0.008026123046875
-0.007080078125
-0.00567626953125
-0.00396728515625
-0.002166748046875
0.000457763671875
0.006317138671875
0.015533447265625
0.021514892578125
0.02313232421875
0.024169921875
0.023529052734375
0.02154541015625
0.020050048828125
0.017730712890625
0.01495361328125
0.0126953125
0.010986328125
0.009307861328125
0.00701904296875
0.00579833984375
0.005157470703125
0.00531005859375
0.005340576171875
0.003753662109375
0.002899169921875
0.00152587890625
0.00018310546875
-3.0517578125e-05
-0.00128173828125
-0.002685546875
-0.003021240234375
-0.002960205078125
-0.0030517578125
-0.001922607421875
0.0
0.00054931640625
0.0006103515625
0.000885009765625
0.00091552734375
0.000396728515625
-3.0517578125e-05
-0.000274658203125
-0.001220703125
-0.001251220703125
-0.00128173828125
-0.001068115234375
0.0010986328125
0.002197265625
0.001861572265625
0.000885009765625
0.0001220703125
-0.000396728515625
-0.001617431640625
-0.001251220703125
0.000640869140625
0.004364013671875
0.012237548828125
0.023590087890625
0.03759765625
0.0531005859375
0.07305908203125
0.09783935546875
0.122711181640625
0.146209716796875
0.1651611328125
0.176513671875
0.178619384765625
0.1700439453125
0.15191650390625
0.125823974609375
0.092926025390625
0.056121826171875
0.019287109375
-0.015472412109375
-0.04736328125
-0.074859619140625
-0.09625244140625
-0.111083984375
-0.119476318359375
-0.121368408203125
-0.11749267578125
-0.109588623046875
-0.098297119140625
-0.086456298828125
-0.076507568359375
-0.06610107421875
-0.05596923828125
-0.048828125
-0.04510498046875
-0.044586181640625
-0.046661376953125
-0.051422119140625
-0.05780029296875
-0.063568115234375
-0.0682373046875
-0.07098388671875
-0.071044921875
-0.068145751953125
-0.062896728515625
-0.055999755859375
-0.047515869140625
-0.0374755859375
-0.0262451171875
-0.01611328125
-0.007720947265625
-0.00048828125
0.004302978515625
0.006622314453125
0.007232666015625
0.006103515625
0.00433349609375
0.0018310546875
-0.001922607421875
-0.00579833984375
-0.009307861328125
-0.013275146484375
-0.016754150390625
-0.019805908203125
-0.022216796875
-0.02313232421875
-0.023345947265625
-0.022735595703125
-0.021453857421875
-0.01971435546875
-0.018096923828125
-0.01605224609375
-0.01348876953125
-0.01153564453125
-0.00909423828125
-0.0064697265625
-0.004486083984375
-0.002685546875
-0.001220703125
0.00054931640625
0.003021240234375
0.0052490234375
0.00628662109375
0.006591796875
0.00689697265625
0.007537841796875
0.00836181640625
0.00927734375
0.009765625
0.00933837890625
0.009002685546875
0.0091552734375
0.00946044921875
0.009429931640625
0.009185791015625
0.00830078125
0.007415771484375
0.00726318359375
0.006683349609375
0.005523681640625
0.004608154296875
0.0048828125
0.0047607421875
0.00433349609375
0.005340576171875
0.005615234375
0.004486083984375
0.003875732421875
0.003265380859375
0.0013427734375
3.0517578125e-05
0.00018310546875
0.000396728515625
-0.000152587890625
-0.00048828125
-0.000701904296875
-0.001068115234375
-0.00067138671875
-0.001678466796875
-0.0030517578125
-0.003631591796875
-0.003387451171875
-0.000213623046875
0.00506591796875
0.014801025390625
0.03021240234375
0.04949951171875
0.073272705078125
0.094970703125
0.11163330078125
0.131195068359375
0.150848388671875
0.164398193359375
0.17047119140625
0.1671142578125
0.1534423828125
0.130279541015625
0.10003662109375
0.06591796875
0.029876708984375
-0.005401611328125
-0.036224365234375
-0.06219482421875
-0.082366943359375
-0.096343994140625
-0.10552978515625
-0.109161376953125
-0.10711669921875
-0.102020263671875
-0.0941162109375
-0.0848388671875
-0.075408935546875
-0.066375732421875
-0.0604248046875
-0.056854248046875
-0.05517578125
-0.054840087890625
-0.05712890625
-0.062286376953125
-0.06829833984375
-0.075775146484375
-0.0828857421875
-0.08917236328125
-0.09405517578125
-0.094573974609375
-0.091766357421875
-0.086029052734375
-0.076263427734375
-0.06524658203125
-0.05291748046875
-0.039337158203125
-0.02606201171875
-0.0137939453125
-0.003173828125
0.005706787109375
0.011199951171875
0.014190673828125
0.015869140625
0.015289306640625
0.013824462890625
0.012115478515625
0.0086669921875
0.00482177734375
0.00140380859375
-0.002838134765625
-0.006622314453125
-0.009521484375
-0.011444091796875
-0.01239013671875
-0.012664794921875
-0.01226806640625
-0.010833740234375
-0.007965087890625
-0.00592041015625
-0.004913330078125
-0.00360107421875
-0.002105712890625
0.000244140625
0.00244140625
0.00396728515625
0.005828857421875
0.00830078125
0.010467529296875
0.012481689453125
0.014495849609375
0.015106201171875
0.014892578125
0.018157958984375
0.02569580078125
0.02935791015625
0.0283203125
0.0274658203125
0.02496337890625
0.02203369140625
0.019073486328125
0.01544189453125
0.013092041015625
0.01129150390625
0.009307861328125
0.00701904296875
0.004425048828125
0.00238037109375
0.00054931640625
-0.001068115234375
-0.00238037109375
-0.002960205078125
-0.00347900390625
-0.00408935546875
-0.00323486328125
-0.002227783203125
-0.00225830078125
-0.001983642578125
-0.001739501953125
-0.00225830078125
-0.00189208984375
-0.00164794921875
-0.002288818359375
-0.00244140625
-0.002655029296875
-0.0023193359375
-0.00201416015625
-0.00201416015625
-0.001190185546875
-0.0013427734375
-0.002044677734375
-0.0028076171875
-0.00360107421875
-0.00286865234375
-0.00030517578125
0.0047607421875
0.012725830078125
0.025543212890625
0.042388916015625
0.05938720703125
0.07501220703125
0.093597412109375
0.115631103515625
0.133575439453125
0.1468505859375
0.15362548828125
0.150543212890625
0.1383056640625
0.1180419921875
0.09234619140625
0.062164306640625
0.02978515625
-0.00103759765625
-0.028717041015625
-0.052703857421875
-0.072265625
-0.0869140625
-0.095794677734375
-0.09942626953125
-0.098968505859375
-0.094818115234375
-0.087799072265625
-0.0789794921875
-0.069854736328125
-0.06207275390625
-0.056854248046875
-0.05230712890625
-0.0484619140625
-0.048095703125
-0.050262451171875
-0.05377197265625
-0.05938720703125
-0.066375732421875
-0.07318115234375
-0.078399658203125
-0.08135986328125
-0.082763671875
-0.0810546875
-0.075225830078125
-0.06793212890625
-0.059722900390625
-0.04931640625
-0.038299560546875
-0.027496337890625
-0.01654052734375
-0.007110595703125
0.0001220703125
0.005767822265625
0.0098876953125
0.0120849609375
0.012786865234375
0.012847900390625
0.0115966796875
0.0087890625
0.005584716796875
0.002410888671875
-0.000823974609375
-0.003997802734375
-0.00653076171875
-0.008575439453125
-0.00970458984375
-0.01055908203125
-0.01080322265625
-0.00848388671875
-0.0064697265625
-0.005706787109375
-0.0045166015625
-0.0025634765625
-0.00048828125
0.00091552734375
0.00274658203125
0.004058837890625
0.005462646484375
0.00665283203125
0.007720947265625
0.0098876953125
0.010955810546875
0.0111083984375
0.01129150390625
0.012298583984375
0.01214599609375
0.011077880859375
0.011077880859375
0.010467529296875
0.009765625
0.009735107421875
0.009796142578125
0.010162353515625
0.0107421875
0.00970458984375
0.00823974609375
0.007293701171875
0.005462646484375
0.004058837890625
0.00286865234375
0.0015869140625
0.001190185546875
0.000640869140625
3.0517578125e-05
0.00079345703125
0.00164794921875
0.00146484375
0.000946044921875
3.0517578125e-05
-0.000732421875
-0.000701904296875
-0.000946044921875
-0.0006103515625
-0.000335693359375
-0.000396728515625
-0.00018310546875
0.00030517578125
0.001861572265625
0.002166748046875
0.00177001953125
0.001861572265625
0.001556396484375
0.001373291015625
0.0006103515625
-0.0006103515625
-0.001373291015625
-0.002685546875
-0.003143310546875
-0.001678466796875
0.001739501953125
0.007537841796875
0.015899658203125
0.02862548828125
0.04583740234375
0.06671142578125
0.0897216796875
0.113067626953125
0.133819580078125
0.149139404296875
0.1572265625
0.156890869140625
0.1456298828125
0.12445068359375
0.09967041015625
0.072235107421875
0.042327880859375
0.012115478515625
-0.017364501953125
-0.044097900390625
-0.066864013671875
-0.0841064453125
-0.09564208984375
-0.102783203125
-0.104705810546875
-0.102508544921875
-0.098876953125
-0.09173583984375
-0.081329345703125
-0.07098388671875
-0.06085205078125
-0.05279541015625
-0.048065185546875
-0.045501708984375
-0.046112060546875
-0.04986572265625
-0.055084228515625
-0.061370849609375
-0.066131591796875
-0.0699462890625
-0.073974609375
-0.076171875
-0.0762939453125
-0.07379150390625
-0.06866455078125
-0.06170654296875
-0.0526123046875
-0.041961669921875
-0.03094482421875
-0.02056884765625
-0.01141357421875
-0.003631591796875
0.002227783203125
0.00665283203125
0.009185791015625
0.009552001953125
0.00897216796875
0.008026123046875
0.005950927734375
0.003143310546875
0.000457763671875
-0.001800537109375
-0.003662109375
-0.00531005859375
-0.006591796875
-0.00762939453125
-0.0084228515625
-0.008453369140625
-0.007904052734375
-0.007568359375
-0.006622314453125
-0.0052490234375
-0.0037841796875
-0.001922607421875
-0.0006103515625
0.0015869140625
0.0050048828125
0.0076904296875
0.0091552734375
0.009765625
0.0108642578125
0.011444091796875
0.01153564453125
0.01220703125
0.0128173828125
0.009002685546875
-9.1552734375e-05
-0.003509521484375
-0.001373291015625
-0.000762939453125
0.0001220703125
0.000823974609375
0.001190185546875
0.002227783203125
0.00335693359375
0.00408935546875
0.004608154296875
0.004425048828125
0.004180908203125
0.005218505859375
0.00616455078125
0.0072021484375
0.008544921875
0.008636474609375
0.007598876953125
0.006317138671875
0.0052490234375
0.0047607421875
0.004180908203125
0.003448486328125
0.003509521484375
0.00323486328125
0.003448486328125
0.0047607421875
0.005279541015625
0.00506591796875
0.00445556640625
0.003875732421875
0.00396728515625
0.00433349609375
0.00439453125
0.0037841796875
0.0032958984375
0.002899169921875
0.002349853515625
0.001953125
0.002044677734375
0.00201416015625
6.103515625e-05
-0.0023193359375
