3.72434017595308e-1,6.005e3,7.134e3,6.96e2,1.5e1,1.5e1,0
3.63636363636364e-1,4.71e3,6.005e3,9.34e2,6.9e1,6.9e1,0
3.55816226783969e-1,2.217e3,4.71e3,1.134e3,1.57e2,1.57e2,0
3.48973607038123e-1,1.754e3,2.217e3,1.291e3,2.6e2,2.6e2,0
3.44086021505376e-1,8.5e1,1.754e3,1.365e3,3.72e2,3.72e2,0
3.39198435972629e-1,-4.88e2,8.5e1,1.423e3,4.84e2,4.84e2,0
3.35288367546432e-1,-1.287e3,4.88e2,1.426e3,5.91e2,5.91e2,0
3.30400782013685e-1,-1.856e3,1.287e3,1.443e3,6.89e2,6.89e2,0
3.25513196480938e-1,-2.245e3,1.856e3,1.485e3,7.77e2,7.77e2,0
3.20625610948192e-1,-2.659e3,2.245e3,1.547e3,8.58e2,8.58e2,0
3.16715542521994e-1,-2.872e3,2.659e3,1.622e3,9.35e2,9.35e2,0
3.11827956989247e-1,-3.046e3,2.872e3,1.711e3,1.011e3,1.011e3,0
3.0791788856305e-1,-3.124e3,3.046e3,1.807e3,1.088e3,1.088e3,0
3.04007820136852e-1,-3.153e3,3.124e3,1.908e3,1.167e3,1.167e3,0
3.01075268817204e-1,-3.111e3,3.153e3,2.013e3,1.248e3,1.248e3,0
2.98142717497556e-1,-3.011e3,3.111e3,2.118e3,1.332e3,1.332e3,0
2.96187683284457e-1,-2.874e3,3.011e3,2.222e3,1.418e3,1.418e3,0
2.95210166177908e-1,-2.697e3,2.874e3,2.322e3,1.506e3,1.506e3,0
2.93255131964809e-1,-2.479e3,2.697e3,2.418e3,1.596e3,1.596e3,0
2.91300097751711e-1,-2.265e3,2.479e3,2.508e3,1.687e3,1.687e3,0
2.89345063538612e-1,-2.078e3,2.265e3,2.59e3,1.778e3,1.778e3,0
2.85434995112414e-1,-1.879e3,2.078e3,2.666e3,1.868e3,1.868e3,0
2.82502443792766e-1,-1.725e3,1.879e3,2.735e3,1.957e3,1.957e3,0
2.79569892473118e-1,-1.586e3,1.725e3,2.798e3,2.044e3,2.044e3,0
2.7761485826002e-1,-1.413e3,1.586e3,2.856e3,2.129e3,2.129e3,0
2.75659824046921e-1,-1.242e3,1.413e3,2.908e3,2.211e3,2.211e3,0
2.73704789833822e-1,-1.064e3,1.242e3,2.956e3,2.289e3,2.289e3,0
2.71749755620723e-1,-9.04e2,1.064e3,2.997e3,2.364e3,2.364e3,0
2.70772238514174e-1,-7.6e2,9.04e2,3.033e3,2.435e3,2.435e3,0
2.69794721407625e-1,-6.05e2,7.6e2,2.801e3,2.503e3,2.503e3,0
2.69794721407625e-1,-4.55e2,6.05e2,2.392e3,2.551e3,2.551e3,0
2.68817204301075e-1,-3.1e2,4.55e2,2.174e3,2.555e3,2.555e3,0
2.67839687194526e-1,-1.87e2,3.1e2,1.989e3,2.522e3,2.522e3,0
2.66862170087977e-1,-1.04e2,1.87e2,1.842e3,2.469e3,2.469e3,0
2.65884652981427e-1,-2.7e1,1.04e2,1.774e3,2.403e3,2.403e3,1
2.63929618768328e-1,3.8e1,2.7e1,1.719e3,2.332e3,2.332e3,0
2.62952101661779e-1,6.8e1,3.8e1,1.718e3,2.262e3,2.262e3,0
2.6099706744868e-1,9.8e1,6.8e1,1.703e3,2.197e3,2.197e3,0
2.6099706744868e-1,1.22e2,9.8e1,1.662e3,2.139e3,2.139e3,0
2.60019550342131e-1,1.53e2,1.22e2,1.603e3,2.084e3,2.084e3,0
2.60019550342131e-1,1.97e2,1.53e2,1.532e3,2.03e3,2.03e3,0
2.6099706744868e-1,2.18e2,1.97e2,1.449e3,1.974e3,1.974e3,0
2.6197458455523e-1,2.73e2,2.18e2,1.36e3,1.916e3,1.916e3,0
2.6197458455523e-1,3.27e2,2.73e2,1.265e3,1.855e3,1.855e3,0
2.6197458455523e-1,3.34e2,3.27e2,1.17e3,1.79e3,1.79e3,0
2.62952101661779e-1,3.28e2,3.34e2,1.076e3,1.721e3,1.721e3,0
2.6197458455523e-1,3.37e2,3.28e2,9.83e2,1.649e3,1.649e3,0
2.6197458455523e-1,3.18e2,3.37e2,8.94e2,1.575e3,1.575e3,0
2.6197458455523e-1,2.74e2,3.18e2,8.09e2,1.499e3,1.499e3,0
2.6099706744868e-1,2.66e2,2.74e2,7.3e2,1.422e3,1.422e3,0
2.6099706744868e-1,2.25e2,2.66e2,6.56e2,1.344e3,1.344e3,0
2.6099706744868e-1,1.87e2,2.25e2,5.9e2,1.266e3,1.266e3,0
2.60019550342131e-1,1.81e2,1.87e2,5.28e2,1.189e3,1.189e3,0
2.60019550342131e-1,1.38e2,1.81e2,4.71e2,1.114e3,1.114e3,0
2.6099706744868e-1,1.07e2,1.38e2,4.2e2,1.041e3,1.041e3,0
2.6099706744868e-1,1.21e2,1.07e2,3.72e2,9.7e2,9.7e2,0
2.63929618768328e-1,1.15e2,1.21e2,3.28e2,9.01e2,9.01e2,0
2.69794721407625e-1,1.44e2,1.15e2,2.91e2,8.35e2,8.35e2,0
2.80547409579668e-1,2.79e2,1.44e2,2.59e2,7.72e2,7.72e2,0
2.97165200391007e-1,5.04e2,2.79e2,2.34e2,7.13e2,7.13e2,0
3.21603128054741e-1,8.58e2,5.04e2,2.18e2,6.57e2,6.57e2,0
3.5386119257087e-1,1.36e3,8.58e2,2.14e2,6.05e2,6.05e2,0
3.92961876832845e-1,1.996e3,1.36e3,2.28e2,5.58e2,5.58e2,0
4.39882697947214e-1,2.715e3,1.996e3,2.63e2,5.18e2,5.18e2,0
4.90713587487781e-1,3.488e3,2.715e3,3.23e2,4.85e2,4.85e2,0
5.43499511241447e-1,4.252e3,3.488e3,4.1e2,4.62e2,4.62e2,0
5.88465298142718e-1,4.878e3,4.252e3,5.25e2,4.5e2,4.5e2,0
6.26588465298143e-1,5.195e3,4.878e3,6.66e2,4.51e2,4.51e2,0
6.65689149560117e-1,5.115e3,5.195e3,8.26e2,4.68e2,4.68e2,0
6.98924731182796e-1,4.931e3,5.115e3,9.97e2,5.0e2,5.0e2,0
7.25317693059629e-1,4.647e3,4.931e3,1.163e3,5.48e2,5.48e2,0
7.42913000977517e-1,4.075e3,4.647e3,1.322e3,6.1e2,6.1e2,0
7.52688172043011e-1,3.308e3,4.075e3,1.471e3,6.84e2,6.84e2,0
7.55620723362659e-1,2.36e3,3.308e3,1.6e3,7.68e2,7.68e2,0
7.52688172043011e-1,1.311e3,2.36e3,1.701e3,8.58e2,8.58e2,0
7.45845552297165e-1,2.39e2,1.311e3,1.769e3,9.51e2,9.51e2,0
7.36070381231672e-1,-8.09e2,2.39e2,1.801e3,1.043e3,1.043e3,0
7.26295210166178e-1,-1.759e3,8.09e2,1.798e3,1.13e3,1.13e3,0
7.17497556207234e-1,-2.563e3,1.759e3,1.814e3,1.208e3,1.208e3,0
7.09677419354839e-1,-3.166e3,2.563e3,1.862e3,1.278e3,1.278e3,0
7.03812316715543e-1,-3.595e3,3.166e3,1.938e3,1.343e3,1.343e3,0
7.00879765395894e-1,-3.857e3,3.595e3,2.035e3,1.408e3,1.408e3,0
6.99902248289345e-1,-3.934e3,3.857e3,2.147e3,1.476e3,1.476e3,0
7.02834799608993e-1,-3.871e3,3.934e3,2.27e3,1.548e3,1.548e3,0
7.06744868035191e-1,-3.672e3,3.871e3,2.395e3,1.625e3,1.625e3,0
7.12609970674487e-1,-3.378e3,3.672e3,2.52e3,1.708e3,1.708e3,0
7.18475073313783e-1,-3.055e3,3.378e3,2.639e3,1.796e3,1.796e3,0
7.2336265884653e-1,-2.71e3,3.055e3,2.747e3,1.888e3,1.888e3,0
7.26295210166178e-1,-2.41e3,2.71e3,2.845e3,1.982e3,1.982e3,0
7.2336265884653e-1,-2.18e3,2.41e3,2.931e3,2.077e3,2.077e3,0
7.15542521994135e-1,-2.088e3,2.18e3,3.002e3,2.172e3,2.172e3,0
7.0772238514174e-1,-2.165e3,2.088e3,3.058e3,2.265e3,2.265e3,0
6.97947214076246e-1,-2.235e3,2.165e3,3.099e3,2.355e3,2.355e3,0
6.86217008797654e-1,-2.275e3,2.235e3,3.126e3,2.44e3,2.44e3,0
6.72531769305963e-1,-2.359e3,2.275e3,3.134e3,2.519e3,2.519e3,0
6.56891495601173e-1,-2.447e3,2.359e3,3.119e3,2.59e3,2.59e3,0
6.42228739002933e-1,-2.543e3,2.447e3,3.081e3,2.652e3,2.652e3,0
6.27565982404692e-1,-2.594e3,2.543e3,3.021e3,2.704e3,2.704e3,0
6.1485826001955e-1,-2.568e3,2.594e3,2.943e3,2.744e3,2.744e3,0
6.04105571847507e-1,-2.486e3,2.568e3,2.856e3,2.771e3,2.771e3,0
5.95307917888563e-1,-2.309e3,2.486e3,2.771e3,2.785e3,2.785e3,0
5.89442815249267e-1,-2.071e3,2.309e3,2.69e3,2.787e3,2.787e3,0
5.85532746823069e-1,-1.77e3,2.071e3,2.612e3,2.779e3,2.779e3,0
5.82600195503421e-1,-1.412e3,1.77e3,2.545e3,2.763e3,2.763e3,0
5.80645161290323e-1,-1.065e3,1.412e3,2.494e3,2.74e3,2.74e3,1
5.78690127077224e-1,-7.33e2,1.065e3,2.462e3,2.713e3,2.713e3,0
5.75757575757576e-1,-4.33e2,7.33e2,2.454e3,2.684e3,2.684e3,0
5.73802541544477e-1,-2.03e2,4.33e2,2.47e3,2.656e3,2.656e3,0
5.70869990224829e-1,-4.0,2.03e2,2.458e3,2.632e3,2.632e3,0
5.66959921798632e-1,1.65e2,4.0,2.406e3,2.611e3,2.611e3,0
5.62072336265885e-1,2.58e2,1.65e2,2.321e3,2.589e3,2.589e3,0
5.56207233626588e-1,3.03e2,2.58e2,2.221e3,2.561e3,2.561e3,0
5.50342130987292e-1,3.08e2,3.03e2,2.109e3,2.526e3,2.526e3,0
5.42521994134897e-1,2.91e2,3.08e2,1.991e3,2.482e3,2.482e3,0
5.34701857282502e-1,2.42e2,2.91e2,1.87e3,2.43e3,2.43e3,0
5.26881720430108e-1,1.59e2,2.42e2,1.75e3,2.37e3,2.37e3,0
5.19061583577713e-1,1.0e2,1.59e2,1.636e3,2.303e3,2.303e3,0
5.11241446725318e-1,4.5e1,1.0e2,1.529e3,2.23e3,2.23e3,0
5.03421309872923e-1,-7.0,4.5e1,1.43e3,2.153e3,2.153e3,0
4.94623655913978e-1,-4.7e1,7.0,1.341e3,2.072e3,2.072e3,0
4.86803519061584e-1,-1.05e2,4.7e1,1.261e3,1.99e3,1.99e3,0
4.78005865102639e-1,-1.49e2,1.05e2,1.19e3,1.908e3,1.908e3,0
4.70185728250244e-1,-1.8e2,1.49e2,1.124e3,1.826e3,1.826e3,0
4.62365591397849e-1,-2.12e2,1.8e2,1.056e3,1.746e3,1.746e3,0
4.54545454545455e-1,-2.13e2,2.12e2,9.88e2,1.668e3,1.668e3,0
4.4672531769306e-1,-2.19e2,2.13e2,9.19e2,1.591e3,1.591e3,0
4.39882697947214e-1,-2.24e2,2.19e2,8.47e2,1.515e3,1.515e3,0
4.33040078201369e-1,-2.03e2,2.24e2,7.73e2,1.44e3,1.44e3,0
4.28152492668622e-1,-1.73e2,2.03e2,6.96e2,1.365e3,1.365e3,0
4.23264907135875e-1,-1.14e2,1.73e2,6.16e2,1.29e3,1.29e3,0
4.18377321603128e-1,-3.1e1,1.14e2,5.36e2,1.214e3,1.214e3,0
4.13489736070381e-1,2.4e1,3.1e1,4.57e2,1.138e3,1.138e3,0
4.09579667644184e-1,6.9e1,2.4e1,3.81e2,1.061e3,1.061e3,0
4.04692082111437e-1,1.27e2,6.9e1,3.13e2,9.84e2,9.84e2,0
4.00782013685239e-1,1.64e2,1.27e2,2.56e2,9.08e2,9.08e2,0
3.96871945259042e-1,1.9e2,1.64e2,2.13e2,8.34e2,8.34e2,0
3.93939393939394e-1,2.3e2,1.9e2,1.83e2,7.62e2,7.62e2,0
3.90029325513196e-1,2.71e2,2.3e2,1.65e2,6.95e2,6.95e2,0
3.87096774193548e-1,2.95e2,2.71e2,1.58e2,6.33e2,6.33e2,0
3.841642228739e-1,3.09e2,2.95e2,1.61e2,5.77e2,5.77e2,0
3.81231671554252e-1,3.35e2,3.09e2,1.7e2,5.27e2,5.27e2,0
3.79276637341153e-1,3.46e2,3.35e2,1.75e2,4.84e2,4.84e2,0
3.77321603128055e-1,3.64e2,3.46e2,1.78e2,4.47e2,4.47e2,0
3.75366568914956e-1,3.94e2,3.64e2,1.79e2,4.14e2,4.14e2,0
3.73411534701857e-1,3.99e2,3.94e2,1.81e2,3.86e2,3.86e2,0
3.71456500488759e-1,4.01e2,3.99e2,1.84e2,3.61e2,3.61e2,0
3.6852394916911e-1,3.95e2,4.01e2,1.9e2,3.39e2,3.39e2,0
3.66568914956012e-1,3.61e2,3.95e2,1.98e2,3.2e2,3.2e2,0
3.64613880742913e-1,3.31e2,3.61e2,2.07e2,3.05e2,3.05e2,0
3.61681329423265e-1,3.22e2,3.31e2,2.18e2,2.92e2,2.92e2,0
3.58748778103617e-1,2.81e2,3.22e2,2.29e2,2.82e2,2.82e2,0
3.54838709677419e-1,2.25e2,2.81e2,2.38e2,2.75e2,2.75e2,0
3.51906158357771e-1,1.66e2,2.25e2,2.44e2,2.7e2,2.7e2,0
3.49951124144673e-1,1.09e2,1.66e2,2.46e2,2.66e2,2.66e2,0
3.48973607038123e-1,1.03e2,1.09e2,2.46e2,2.63e2,2.63e2,0
3.47018572825024e-1,1.2e2,1.03e2,2.42e2,2.6e2,2.6e2,0
3.45063538611926e-1,1.22e2,1.2e2,2.39e2,2.58e2,2.58e2,0
3.43108504398827e-1,1.02e2,1.22e2,2.36e2,2.55e2,2.55e2,0
3.41153470185728e-1,8.9e1,1.02e2,2.32e2,2.52e2,2.52e2,0
3.3822091886608e-1,7.6e1,8.9e1,2.29e2,2.49e2,2.49e2,0
3.36265884652981e-1,4.0e1,7.6e1,2.26e2,2.46e2,2.46e2,0
3.33333333333333e-1,1.4e1,4.0e1,2.25e2,2.43e2,2.43e2,0
3.31378299120235e-1,-6.0,1.4e1,2.25e2,2.4e2,2.4e2,0
3.29423264907136e-1,-3.0e1,6.0,2.25e2,2.38e2,2.38e2,0
3.27468230694037e-1,-2.7e1,3.0e1,2.23e2,2.36e2,2.36e2,0
3.25513196480938e-1,-3.1e1,2.7e1,2.19e2,2.34e2,2.34e2,0
3.24535679374389e-1,-3.9e1,3.1e1,2.15e2,2.32e2,2.32e2,0
3.24535679374389e-1,-2.1e1,3.9e1,2.09e2,2.3e2,2.3e2,0
3.2355816226784e-1,2.2e1,2.1e1,2.03e2,2.27e2,2.27e2,0
3.2258064516129e-1,5.0e1,2.2e1,1.95e2,2.24e2,2.24e2,0
3.21603128054741e-1,4.8e1,5.0e1,1.86e2,2.21e2,2.21e2,0
3.21603128054741e-1,5.5e1,4.8e1,1.77e2,2.17e2,2.17e2,0
3.20625610948192e-1,7.5e1,5.5e1,1.67e2,2.12e2,2.12e2,0
3.19648093841642e-1,8.5e1,7.5e1,1.58e2,2.07e2,2.07e2,0
3.17693059628543e-1,7.0e1,8.5e1,1.48e2,2.01e2,2.01e2,0
3.16715542521994e-1,4.3e1,7.0e1,1.38e2,1.95e2,1.95e2,0
3.14760508308895e-1,2.2e1,4.3e1,1.27e2,1.88e2,1.88e2,0
3.12805474095797e-1,4.0,2.2e1,1.15e2,1.81e2,1.81e2,0
3.11827956989247e-1,-3.4e1,4.0,1.02e2,1.73e2,1.73e2,0
3.10850439882698e-1,-4.2e1,3.4e1,9.0e1,1.65e2,1.65e2,0
3.08895405669599e-1,-3.1e1,4.2e1,8.1e1,1.56e2,1.56e2,0
3.069403714565e-1,-5.3e1,3.1e1,7.1e1,1.47e2,1.47e2,0
3.04985337243402e-1,-8.2e1,5.3e1,6.3e1,1.38e2,1.38e2,0
3.05962854349951e-1,-1.01e2,8.2e1,5.7e1,1.29e2,1.29e2,0
3.09872922776149e-1,-6.3e1,1.01e2,5.4e1,1.2e2,1.2e2,0
3.17693059628543e-1,7.5e1,6.3e1,5.4e1,1.12e2,1.12e2,0
3.32355816226784e-1,2.89e2,7.5e1,5.3e1,1.05e2,1.05e2,0
3.5386119257087e-1,6.39e2,2.89e2,5.1e1,9.8e1,9.8e1,0
3.841642228739e-1,1.145e3,6.39e2,5.7e1,9.2e1,9.2e1,0
4.20332355816227e-1,1.783e3,1.145e3,7.5e1,8.7e1,8.7e1,0
4.63343108504399e-1,2.51e3,1.783e3,1.1e2,8.4e1,8.4e1,0
5.02443792766373e-1,3.253e3,2.51e3,1.67e2,8.4e1,8.4e1,0
5.40566959921799e-1,3.834e3,3.253e3,2.49e2,9.0e1,9.0e1,0
5.83577712609971e-1,4.14e3,3.834e3,3.57e2,1.03e2,1.03e2,0
6.25610948191593e-1,4.445e3,4.14e3,4.85e2,1.26e2,1.26e2,0
6.63734115347019e-1,4.701e3,4.445e3,6.22e2,1.6e2,1.6e2,0
6.95014662756598e-1,4.697e3,4.701e3,7.69e2,2.06e2,2.06e2,0
7.18475073313783e-1,4.458e3,4.697e3,9.25e2,2.63e2,2.63e2,0
7.34115347018573e-1,3.946e3,4.458e3,1.081e3,3.31e2,3.31e2,0
7.42913000977517e-1,3.218e3,3.946e3,1.229e3,4.1e2,4.1e2,0
7.44868035190616e-1,2.349e3,3.218e3,1.36e3,4.98e2,4.98e2,0
7.42913000977517e-1,1.377e3,2.349e3,1.465e3,5.92e2,5.92e2,0
7.37047898338221e-1,3.93e2,1.377e3,1.542e3,6.88e2,6.88e2,0
7.30205278592375e-1,-5.42e2,3.93e2,1.586e3,7.84e2,7.84e2,0
7.2238514173998e-1,-1.384e3,5.42e2,1.597e3,8.76e2,8.76e2,0
7.15542521994135e-1,-2.085e3,1.384e3,1.612e3,9.6e2,9.6e2,0
7.10654936461388e-1,-2.637e3,2.085e3,1.656e3,1.036e3,1.036e3,0
7.0772238514174e-1,-3.006e3,2.637e3,1.724e3,1.106e3,1.106e3,0
7.06744868035191e-1,-3.206e3,3.006e3,1.811e3,1.174e3,1.174e3,0
7.0772238514174e-1,-3.276e3,3.206e3,1.911e3,1.243e3,1.243e3,0
7.11632453567937e-1,-3.224e3,3.276e3,2.017e3,1.315e3,1.315e3,0
7.17497556207234e-1,-3.059e3,3.224e3,2.125e3,1.391e3,1.391e3,0
7.24340175953079e-1,-2.802e3,3.059e3,2.231e3,1.471e3,1.471e3,0
7.31182795698925e-1,-2.514e3,2.802e3,2.332e3,1.554e3,1.554e3,0
7.3802541544477e-1,-2.23e3,2.514e3,2.422e3,1.639e3,1.639e3,0
7.41935483870968e-1,-1.963e3,2.23e3,2.503e3,1.725e3,1.725e3,0
7.42913000977517e-1,-1.769e3,1.963e3,2.575e3,1.811e3,1.811e3,0
7.40957966764418e-1,-1.685e3,1.769e3,2.638e3,1.896e3,1.896e3,0
7.36070381231672e-1,-1.675e3,1.685e3,2.687e3,1.979e3,1.979e3,0
7.28250244379277e-1,-1.73e3,1.675e3,2.722e3,2.059e3,2.059e3,0
7.17497556207234e-1,-1.844e3,1.73e3,2.74e3,2.134e3,2.134e3,0
7.02834799608993e-1,-1.998e3,1.844e3,2.738e3,2.204e3,2.204e3,0
6.87194525904203e-1,-2.209e3,1.998e3,2.716e3,2.266e3,2.266e3,0
6.68621700879765e-1,-2.419e3,2.209e3,2.674e3,2.32e3,2.32e3,0
6.50048875855327e-1,-2.61e3,2.419e3,2.62e3,2.363e3,2.363e3,0
6.3147605083089e-1,-2.78e3,2.61e3,2.563e3,2.396e3,2.396e3,0
6.1485826001955e-1,-2.864e3,2.78e3,2.501e3,2.418e3,2.418e3,0
6.0019550342131e-1,-2.857e3,2.864e3,2.437e3,2.431e3,2.431e3,0
5.88465298142718e-1,-2.747e3,2.857e3,2.376e3,2.435e3,2.435e3,0
5.79667644183773e-1,-2.534e3,2.747e3,2.323e3,2.431e3,2.431e3,0
5.72825024437928e-1,-2.233e3,2.534e3,2.283e3,2.42e3,2.42e3,0
5.67937438905181e-1,-1.875e3,2.233e3,2.26e3,2.405e3,2.405e3,1
5.65004887585533e-1,-1.5e3,1.875e3,2.256e3,2.388e3,2.388e3,0
5.63049853372434e-1,-1.102e3,1.5e3,2.273e3,2.372e3,2.372e3,0
5.61094819159335e-1,-7.16e2,1.102e3,2.31e3,2.358e3,2.358e3,0
5.60117302052786e-1,-3.79e2,7.16e2,2.328e3,2.349e3,2.349e3,0
5.57184750733138e-1,-7.7e1,3.79e2,2.306e3,2.345e3,2.345e3,0
5.5425219941349e-1,1.55e2,7.7e1,2.249e3,2.341e3,2.341e3,0
5.50342130987292e-1,3.05e2,1.55e2,2.164e3,2.333e3,2.333e3,0
5.45454545454545e-1,4.22e2,3.05e2,2.069e3,2.317e3,2.317e3,0
5.39589442815249e-1,4.75e2,4.22e2,1.972e3,2.292e3,2.292e3,0
5.33724340175953e-1,4.78e2,4.75e2,1.877e3,2.259e3,2.259e3,0
5.26881720430108e-1,4.67e2,4.78e2,1.785e3,2.219e3,2.219e3,0
5.19061583577713e-1,4.29e2,4.67e2,1.699e3,2.172e3,2.172e3,0
5.10263929618768e-1,3.57e2,4.29e2,1.621e3,2.12e3,2.12e3,0
5.00488758553275e-1,2.6e2,3.57e2,1.551e3,2.065e3,2.065e3,0
4.90713587487781e-1,1.46e2,2.6e2,1.489e3,2.007e3,2.007e3,0
4.80938416422287e-1,3.3e1,1.46e2,1.432e3,1.949e3,1.949e3,0
4.70185728250244e-1,-5.7e1,3.3e1,1.378e3,1.89e3,1.89e3,0
4.60410557184751e-1,-1.53e2,5.7e1,1.323e3,1.832e3,1.832e3,0
4.51612903225806e-1,-2.32e2,1.53e2,1.269e3,1.774e3,1.774e3,0
4.42815249266862e-1,-2.52e2,2.32e2,1.216e3,1.717e3,1.717e3,0
4.34017595307918e-1,-2.61e2,2.52e2,1.163e3,1.66e3,1.66e3,0
4.27174975562072e-1,-2.72e2,2.61e2,1.104e3,1.604e3,1.604e3,0
4.21309872922776e-1,-2.38e2,2.72e2,1.039e3,1.548e3,1.548e3,0
4.1544477028348e-1,-1.57e2,2.38e2,9.68e2,1.491e3,1.491e3,0
4.09579667644184e-1,-8.7e1,1.57e2,8.89e2,1.433e3,1.433e3,0
4.04692082111437e-1,-3.2e1,8.7e1,8.01e2,1.373e3,1.373e3,0
3.9980449657869e-1,3.5e1,3.2e1,7.09e2,1.31e3,1.31e3,0
3.94916911045943e-1,1.02e2,3.5e1,6.14e2,1.244e3,1.244e3,0
3.90029325513196e-1,1.49e2,1.02e2,5.24e2,1.174e3,1.174e3,0
3.86119257086999e-1,1.87e2,1.49e2,4.43e2,1.102e3,1.102e3,0
3.82209188660802e-1,2.34e2,1.87e2,3.73e2,1.028e3,1.028e3,0
3.77321603128055e-1,2.83e2,2.34e2,3.17e2,9.54e2,9.54e2,0
3.73411534701857e-1,2.94e2,2.83e2,2.75e2,8.81e2,8.81e2,0
3.71456500488759e-1,3.0e2,2.94e2,2.47e2,8.11e2,8.11e2,0
3.6852394916911e-1,3.62e2,3.0e2,2.33e2,7.45e2,7.45e2,0
3.66568914956012e-1,4.09e2,3.62e2,2.31e2,6.85e2,6.85e2,0
3.63636363636364e-1,4.3e2,4.09e2,2.4e2,6.31e2,6.31e2,0
3.60703812316716e-1,4.52e2,4.3e2,2.49e2,5.84e2,5.84e2,0
3.58748778103617e-1,4.35e2,4.52e2,2.53e2,5.43e2,5.43e2,0
3.55816226783969e-1,4.39e2,4.35e2,2.54e2,5.08e2,5.08e2,0
3.52883675464321e-1,4.35e2,4.39e2,2.52e2,4.77e2,4.77e2,0
3.50928641251222e-1,3.93e2,4.35e2,2.51e2,4.5e2,4.5e2,0
3.47996089931574e-1,3.85e2,3.93e2,2.5e2,4.26e2,4.26e2,0
3.46041055718475e-1,3.63e2,3.85e2,2.49e2,4.05e2,4.05e2,0
3.43108504398827e-1,3.33e2,3.63e2,2.5e2,3.86e2,3.86e2,0
3.41153470185728e-1,3.1e2,3.33e2,2.53e2,3.69e2,3.69e2,0
3.39198435972629e-1,2.77e2,3.1e2,2.59e2,3.55e2,3.55e2,0
3.37243401759531e-1,2.68e2,2.77e2,2.69e2,3.43e2,3.43e2,0
3.35288367546432e-1,2.49e2,2.68e2,2.76e2,3.33e2,3.33e2,0
3.33333333333333e-1,2.24e2,2.49e2,2.8e2,3.25e2,3.25e2,0
3.30400782013685e-1,2.06e2,2.24e2,2.8e2,3.19e2,3.19e2,0
3.28445747800586e-1,1.62e2,2.06e2,2.8e2,3.14e2,3.14e2,0
3.25513196480938e-1,1.28e2,1.62e2,2.78e2,3.09e2,3.09e2,0
3.2258064516129e-1,9.9e1,1.28e2,2.74e2,3.05e2,3.05e2,0
3.20625610948192e-1,4.8e1,9.9e1,2.7e2,3.01e2,3.01e2,0
3.17693059628543e-1,2.9e1,4.8e1,2.68e2,2.97e2,2.97e2,0
3.14760508308895e-1,1.1e1,2.9e1,2.67e2,2.93e2,2.93e2,0
3.11827956989247e-1,-3.4e1,1.1e1,2.67e2,2.89e2,2.89e2,0
3.10850439882698e-1,-5.8e1,3.4e1,2.66e2,2.86e2,2.86e2,0
3.09872922776149e-1,-4.6e1,5.8e1,2.64e2,2.83e2,2.83e2,0
3.0791788856305e-1,-5.0,4.6e1,2.61e2,2.8e2,2.8e2,0
3.069403714565e-1,-2.0,5.0,2.56e2,2.77e2,2.77e2,0
3.04985337243402e-1,2.0,2.0,2.49e2,2.74e2,2.74e2,0
3.04007820136852e-1,1.3e1,2.0,2.39e2,2.71e2,2.71e2,0
3.02052785923754e-1,9.0,1.3e1,2.29e2,2.67e2,2.67e2,0
3.01075268817204e-1,1.5e1,9.0,2.2e2,2.63e2,2.63e2,0
3.00097751710655e-1,1.2e1,1.5e1,2.08e2,2.58e2,2.58e2,0
2.99120234604106e-1,3.0e1,1.2e1,1.95e2,2.52e2,2.52e2,0
2.98142717497556e-1,4.0e1,3.0e1,1.81e2,2.45e2,2.45e2,0
2.97165200391007e-1,4.1e1,4.0e1,1.67e2,2.38e2,2.38e2,0
2.96187683284457e-1,4.8e1,4.1e1,1.54e2,2.3e2,2.3e2,0
2.96187683284457e-1,4.5e1,4.8e1,1.4e2,2.21e2,2.21e2,0
2.96187683284457e-1,6.4e1,4.5e1,1.28e2,2.12e2,2.12e2,0
2.95210166177908e-1,9.1e1,6.4e1,1.16e2,2.02e2,2.02e2,0
2.94232649071359e-1,8.6e1,9.1e1,1.05e2,1.92e2,1.92e2,0
2.93255131964809e-1,6.5e1,8.6e1,9.6e1,1.82e2,1.82e2,0
2.9227761485826e-1,5.3e1,6.5e1,8.8e1,1.72e2,1.72e2,0
2.90322580645161e-1,3.8e1,5.3e1,8.0e1,1.62e2,1.62e2,0
2.89345063538612e-1,5.0,3.8e1,7.2e1,1.52e2,1.52e2,0
2.87390029325513e-1,-2.0e1,5.0,6.5e1,1.42e2,1.42e2,0
2.86412512218964e-1,-3.8e1,2.0e1,5.7e1,1.33e2,1.33e2,0
2.85434995112414e-1,-5.9e1,3.8e1,5.0e1,1.24e2,1.24e2,0
2.85434995112414e-1,-5.4e1,5.9e1,4.4e1,1.15e2,1.15e2,0
2.89345063538612e-1,-3.6e1,5.4e1,4.1e1,1.06e2,1.06e2,0
2.96187683284457e-1,6.5e1,3.6e1,3.8e1,9.8e1,9.8e1,0
3.0791788856305e-1,2.67e2,6.5e1,3.6e1,9.1e1,9.1e1,0
3.27468230694037e-1,5.4e2,2.67e2,3.7e1,8.4e1,8.4e1,0
3.5386119257087e-1,9.78e2,5.4e2,4.5e1,7.8e1,7.8e1,0
3.88074291300098e-1,1.557e3,9.78e2,6.2e1,7.3e1,7.3e1,0
4.3010752688172e-1,2.227e3,1.557e3,9.4e1,7.0e1,7.0e1,0
4.76050830889541e-1,2.998e3,2.227e3,1.44e2,7.0e1,7.0e1,0
5.23949169110459e-1,3.753e3,2.998e3,2.16e2,7.5e1,7.5e1,0
5.71847507331378e-1,4.383e3,3.753e3,3.16e2,8.7e1,8.7e1,0
6.16813294232649e-1,4.862e3,4.383e3,4.41e2,1.08e2,1.08e2,0
6.56891495601173e-1,5.123e3,4.862e3,5.88e2,1.39e2,1.39e2,0
6.88172043010753e-1,5.121e3,5.123e3,7.49e2,1.83e2,1.83e2,0
7.09677419354839e-1,4.815e3,5.121e3,9.2e2,2.4e2,2.4e2,0
7.2238514173998e-1,4.181e3,4.815e3,1.09e3,3.1e2,3.1e2,0
7.30205278592375e-1,3.312e3,4.181e3,1.25e3,3.92e2,3.92e2,0
7.33137829912023e-1,2.35e3,3.312e3,1.389e3,4.83e2,4.83e2,0
7.32160312805474e-1,1.378e3,2.35e3,1.498e3,5.81e2,5.81e2,0
7.26295210166178e-1,4.07e2,1.378e3,1.575e3,6.82e2,6.82e2,0
7.19452590420332e-1,-5.46e2,4.07e2,1.619e3,7.82e2,7.82e2,0
7.11632453567937e-1,-1.414e3,5.46e2,1.631e3,8.78e2,8.78e2,0
7.03812316715543e-1,-2.131e3,1.414e3,1.648e3,9.66e2,9.66e2,0
6.97947214076246e-1,-2.715e3,2.131e3,1.692e3,1.045e3,1.045e3,0
6.94037145650049e-1,-3.127e3,2.715e3,1.76e3,1.118e3,1.118e3,0
6.930596285435e-1,-3.353e3,3.127e3,1.848e3,1.189e3,1.189e3,0
6.94037145650049e-1,-3.426e3,3.353e3,1.951e3,1.261e3,1.261e3,0
6.95014662756598e-1,-3.359e3,3.426e3,2.061e3,1.336e3,1.336e3,0
6.99902248289345e-1,-3.24e3,3.359e3,2.175e3,1.414e3,1.414e3,0
7.06744868035191e-1,-3.031e3,3.24e3,2.287e3,1.496e3,1.496e3,0
7.12609970674487e-1,-2.704e3,3.031e3,2.394e3,1.582e3,1.582e3,0
7.18475073313783e-1,-2.41e3,2.704e3,2.493e3,1.671e3,1.671e3,0
7.21407624633431e-1,-2.154e3,2.41e3,2.581e3,1.762e3,1.762e3,0
7.2336265884653e-1,-1.949e3,2.154e3,2.66e3,1.853e3,1.853e3,0
7.2336265884653e-1,-1.826e3,1.949e3,2.73e3,1.943e3,1.943e3,0
7.18475073313783e-1,-1.726e3,1.826e3,2.786e3,2.031e3,2.031e3,0
7.10654936461388e-1,-1.742e3,1.726e3,2.829e3,2.116e3,2.116e3,0
6.98924731182796e-1,-1.859e3,1.742e3,2.854e3,2.197e3,2.197e3,0
6.84261974584555e-1,-2.015e3,1.859e3,2.86e3,2.272e3,2.272e3,0
6.67644183773216e-1,-2.231e3,2.015e3,2.848e3,2.34e3,2.34e3,0
6.51026392961877e-1,-2.441e3,2.231e3,2.815e3,2.4e3,2.4e3,0
6.32453567937439e-1,-2.597e3,2.441e3,2.764e3,2.45e3,2.45e3,0
6.13880742913001e-1,-2.723e3,2.597e3,2.7e3,2.489e3,2.489e3,0
5.96285434995112e-1,-2.821e3,2.723e3,2.624e3,2.517e3,2.517e3,0
5.80645161290323e-1,-2.832e3,2.821e3,2.544e3,2.533e3,2.533e3,0
5.67937438905181e-1,-2.747e3,2.832e3,2.467e3,2.538e3,2.538e3,0
5.58162267839687e-1,-2.559e3,2.747e3,2.401e3,2.533e3,2.533e3,0
5.51319648093842e-1,-2.269e3,2.559e3,2.353e3,2.52e3,2.52e3,0
5.47409579667644e-1,-1.911e3,2.269e3,2.328e3,2.502e3,2.502e3,1
5.43499511241447e-1,-1.494e3,1.911e3,2.325e3,2.482e3,2.482e3,0
5.40566959921799e-1,-1.092e3,1.494e3,2.343e3,2.463e3,2.463e3,0
5.386119257087e-1,-7.4e2,1.092e3,2.379e3,2.447e3,2.447e3,0
5.35679374389052e-1,-3.94e2,7.4e2,2.398e3,2.436e3,2.436e3,0
5.32746823069404e-1,-1.11e2,3.94e2,2.375e3,2.429e3,2.429e3,0
5.29814271749756e-1,1.02e2,1.11e2,2.317e3,2.423e3,2.423e3,0
5.24926686217009e-1,2.89e2,1.02e2,2.23e3,2.413e3,2.413e3,0
5.19061583577713e-1,3.98e2,2.89e2,2.13e3,2.396e3,2.396e3,0
5.13196480938416e-1,4.31e2,3.98e2,2.027e3,2.37e3,2.37e3,0
5.05376344086022e-1,4.51e2,4.31e2,1.926e3,2.335e3,2.335e3,0
4.96578690127077e-1,4.23e2,4.51e2,1.829e3,2.292e3,2.292e3,0
4.87781036168133e-1,3.38e2,4.23e2,1.736e3,2.242e3,2.242e3,0
4.78983382209189e-1,2.6e2,3.38e2,1.649e3,2.187e3,2.187e3,0
4.69208211143695e-1,1.93e2,2.6e2,1.57e3,2.128e3,2.128e3,0
4.59433040078201e-1,1.1e2,1.93e2,1.498e3,2.066e3,2.066e3,0
4.50635386119257e-1,2.3e1,1.1e2,1.433e3,2.002e3,2.002e3,0
4.42815249266862e-1,-2.7e1,2.3e1,1.371e3,1.938e3,1.938e3,0
4.34017595307918e-1,-3.6e1,2.7e1,1.311e3,1.874e3,1.874e3,0
4.24242424242424e-1,-5.6e1,3.6e1,1.254e3,1.81e3,1.81e3,0
4.1544477028348e-1,-1.13e2,5.6e1,1.198e3,1.747e3,1.747e3,0
4.06647116324536e-1,-1.48e2,1.13e2,1.137e3,1.685e3,1.685e3,0
3.98826979472141e-1,-1.55e2,1.48e2,1.074e3,1.623e3,1.623e3,0
3.91006842619746e-1,-1.53e2,1.55e2,1.004e3,1.561e3,1.561e3,0
3.83186705767351e-1,-1.31e2,1.53e2,9.28e2,1.499e3,1.499e3,0
3.76344086021505e-1,-1.18e2,1.31e2,8.47e2,1.435e3,1.435e3,0
3.70478983382209e-1,-8.9e1,1.18e2,7.6e2,1.37e3,1.37e3,0
3.64613880742913e-1,-2.7e1,8.9e1,6.7e2,1.302e3,1.302e3,0
3.60703812316716e-1,2.9e1,2.7e1,5.79e2,1.232e3,1.232e3,0
3.56793743890518e-1,1.09e2,2.9e1,4.88e2,1.159e3,1.159e3,0
3.52883675464321e-1,2.06e2,1.09e2,4.03e2,1.084e3,1.084e3,0
3.47996089931574e-1,2.68e2,2.06e2,3.31e2,1.008e3,1.008e3,0
3.44086021505376e-1,2.99e2,2.68e2,2.75e2,9.32e2,9.32e2,0
3.40175953079179e-1,3.24e2,2.99e2,2.34e2,8.57e2,8.57e2,0
3.36265884652981e-1,3.58e2,3.24e2,2.07e2,7.85e2,7.85e2,0
3.33333333333333e-1,3.74e2,3.58e2,1.93e2,7.18e2,7.18e2,0
3.29423264907136e-1,3.97e2,3.74e2,1.92e2,6.56e2,6.56e2,0
3.26490713587488e-1,4.12e2,3.97e2,2.01e2,6.01e2,6.01e2,0
3.2355816226784e-1,4.07e2,4.12e2,2.11e2,5.53e2,5.53e2,0
3.20625610948192e-1,4.24e2,4.07e2,2.15e2,5.11e2,5.11e2,0
3.18670576735093e-1,4.21e2,4.24e2,2.15e2,4.75e2,4.75e2,0
3.16715542521994e-1,4.29e2,4.21e2,2.15e2,4.44e2,4.44e2,0
3.15738025415445e-1,4.49e2,4.29e2,2.14e2,4.16e2,4.16e2,0
3.13782991202346e-1,4.64e2,4.49e2,2.14e2,3.92e2,3.92e2,0
3.11827956989247e-1,4.71e2,4.64e2,2.18e2,3.7e2,3.7e2,0
3.09872922776149e-1,4.44e2,4.71e2,2.25e2,3.51e2,3.51e2,0
3.069403714565e-1,4.22e2,4.44e2,2.34e2,3.35e2,3.35e2,0
3.04007820136852e-1,3.78e2,4.22e2,2.45e2,3.22e2,3.22e2,0
3.02052785923754e-1,3.13e2,3.78e2,2.58e2,3.12e2,3.12e2,0
3.00097751710655e-1,2.84e2,3.13e2,2.7e2,3.04e2,3.04e2,0
2.97165200391007e-1,2.65e2,2.84e2,2.79e2,2.99e2,2.99e2,0
2.94232649071359e-1,2.19e2,2.65e2,2.87e2,2.96e2,2.96e2,0
2.91300097751711e-1,1.63e2,2.19e2,2.92e2,2.94e2,2.94e2,0
2.90322580645161e-1,1.19e2,1.63e2,2.94e2,2.93e2,2.93e2,0
2.88367546432063e-1,1.15e2,1.19e2,2.95e2,2.92e2,2.92e2,0
2.87390029325513e-1,1.21e2,1.15e2,2.93e2,2.92e2,2.92e2,0
2.85434995112414e-1,1.13e2,1.21e2,2.93e2,2.92e2,2.92e2,0
2.83479960899316e-1,1.1e2,1.13e2,2.93e2,2.92e2,2.92e2,0
2.80547409579668e-1,8.3e1,1.1e2,2.94e2,2.92e2,2.92e2,0
2.78592375366569e-1,4.3e1,8.3e1,2.97e2,2.92e2,2.92e2,0
2.7663734115347e-1,1.5e1,4.3e1,2.98e2,2.92e2,2.92e2,0
2.75659824046921e-1,7.0,1.5e1,2.96e2,2.92e2,2.92e2,0
2.73704789833822e-1,1.4e1,7.0,2.9e2,2.92e2,2.92e2,0
2.72727272727273e-1,1.3e1,1.4e1,2.81e2,2.92e2,2.92e2,0
2.70772238514174e-1,1.0e1,1.3e1,2.72e2,2.91e2,2.91e2,0
2.69794721407625e-1,1.0e1,1.0e1,2.61e2,2.89e2,2.89e2,0
2.68817204301075e-1,6.0,1.0e1,2.5e2,2.86e2,2.86e2,0
2.68817204301075e-1,2.2e1,6.0,2.37e2,2.82e2,2.82e2,0
2.68817204301075e-1,4.9e1,2.2e1,2.24e2,2.77e2,2.77e2,0
2.67839687194526e-1,8.2e1,4.9e1,2.11e2,2.71e2,2.71e2,0
2.65884652981427e-1,8.7e1,8.2e1,2.0e2,2.64e2,2.64e2,0
2.63929618768328e-1,5.1e1,8.7e1,1.88e2,2.57e2,2.57e2,0
2.6099706744868e-1,1.4e1,5.1e1,1.77e2,2.49e2,2.49e2,0
2.59042033235582e-1,-3.4e1,1.4e1,1.64e2,2.41e2,2.41e2,0
2.56109481915934e-1,-7.3e1,3.4e1,1.5e2,2.32e2,2.32e2,0
2.54154447702835e-1,-1.01e2,7.3e1,1.35e2,2.23e2,2.23e2,0
2.53176930596285e-1,-1.3e2,1.01e2,1.22e2,2.13e2,2.13e2,0
2.54154447702835e-1,-1.11e2,1.3e2,1.11e2,2.02e2,2.02e2,0
2.58064516129032e-1,-4.7e1,1.11e2,1.01e2,1.91e2,1.91e2,0
2.65884652981427e-1,8.4e1,4.7e1,9.2e1,1.8e2,1.8e2,0
2.79569892473118e-1,3.07e2,8.4e1,8.3e1,1.7e2,1.7e2,0
3.00097751710655e-1,6.42e2,3.07e2,7.7e1,1.6e2,1.6e2,0
3.29423264907136e-1,1.118e3,6.42e2,7.8e1,1.5e2,1.5e2,0
3.66568914956012e-1,1.741e3,1.118e3,9.2e1,1.41e2,1.41e2,0
4.10557184750733e-1,2.49e3,1.741e3,1.24e2,1.34e2,1.34e2,0
4.59433040078201e-1,3.286e3,2.49e3,1.78e2,1.3e2,1.3e2,0
5.11241446725318e-1,4.063e3,3.286e3,2.57e2,1.32e2,1.32e2,0
5.61094819159335e-1,4.753e3,4.063e3,3.63e2,1.42e2,1.42e2,0
6.07038123167155e-1,5.241e3,4.753e3,4.95e2,1.61e2,1.61e2,0
6.47116324535679e-1,5.45e3,5.241e3,6.49e2,1.92e2,1.92e2,0
6.79374389051808e-1,5.382e3,5.45e3,8.22e2,2.36e2,2.36e2,0
7.00879765395894e-1,5.022e3,5.382e3,1.002e3,2.95e2,2.95e2,0
7.12609970674487e-1,4.341e3,5.022e3,1.181e3,3.67e2,3.67e2,0
7.20430107526882e-1,3.389e3,4.341e3,1.348e3,4.52e2,4.52e2,0
7.2238514173998e-1,2.365e3,3.389e3,1.493e3,5.47e2,5.47e2,0
7.18475073313783e-1,1.348e3,2.365e3,1.605e3,6.5e2,6.5e2,0
7.12609970674487e-1,2.73e2,1.348e3,1.684e3,7.56e2,7.56e2,0
7.03812316715543e-1,-7.29e2,2.73e2,1.728e3,8.6e2,8.6e2,0
6.95014662756598e-1,-1.61e3,7.29e2,1.737e3,9.59e2,9.59e2,0
6.87194525904203e-1,-2.378e3,1.61e3,1.761e3,1.05e3,1.05e3,0
6.81329423264907e-1,-2.945e3,2.378e3,1.813e3,1.132e3,1.132e3,0
6.7741935483871e-1,-3.33e3,2.945e3,1.889e3,1.209e3,1.209e3,0
6.7741935483871e-1,-3.545e3,3.33e3,1.985e3,1.284e3,1.284e3,0
6.7741935483871e-1,-3.573e3,3.545e3,2.094e3,1.36e3,1.36e3,0
6.79374389051808e-1,-3.497e3,3.573e3,2.212e3,1.44e3,1.44e3,0
6.83284457478006e-1,-3.367e3,3.497e3,2.33e3,1.524e3,1.524e3,0
6.89149560117302e-1,-3.135e3,3.367e3,2.444e3,1.612e3,1.612e3,0
6.95992179863148e-1,-2.837e3,3.135e3,2.553e3,1.703e3,1.703e3,0
7.00879765395894e-1,-2.513e3,2.837e3,2.653e3,1.796e3,1.796e3,0
7.04789833822092e-1,-2.231e3,2.513e3,2.744e3,1.891e3,1.891e3,0
7.05767350928641e-1,-2.024e3,2.231e3,2.827e3,1.986e3,1.986e3,0
7.03812316715543e-1,-1.874e3,2.024e3,2.898e3,2.08e3,2.08e3,0
6.96969696969697e-1,-1.825e3,1.874e3,2.955e3,2.172e3,2.172e3,0
6.87194525904203e-1,-1.882e3,1.825e3,2.997e3,2.26e3,2.26e3,0
6.73509286412512e-1,-2.02e3,1.882e3,3.02e3,2.344e3,2.344e3,0
6.56891495601173e-1,-2.204e3,2.02e3,3.025e3,2.422e3,2.422e3,0
6.40273704789834e-1,-2.43e3,2.204e3,3.009e3,2.492e3,2.492e3,0
6.23655913978495e-1,-2.614e3,2.43e3,2.973e3,2.553e3,2.553e3,0
6.05083088954057e-1,-2.71e3,2.614e3,2.919e3,2.604e3,2.604e3,0
5.86510263929619e-1,-2.8e3,2.71e3,2.847e3,2.643e3,2.643e3,0
5.6891495601173e-1,-2.863e3,2.8e3,2.763e3,2.67e3,2.67e3,0
5.5425219941349e-1,-2.841e3,2.863e3,2.674e3,2.685e3,2.685e3,0
5.41544477028348e-1,-2.715e3,2.841e3,2.59e3,2.688e3,2.688e3,0
5.32746823069404e-1,-2.492e3,2.715e3,2.518e3,2.68e3,2.68e3,0
5.25904203323558e-1,-2.18e3,2.492e3,2.463e3,2.664e3,2.664e3,0
5.21016617790811e-1,-1.798e3,2.18e3,2.433e3,2.643e3,2.643e3,1
5.17106549364614e-1,-1.406e3,1.798e3,2.427e3,2.619e3,2.619e3,0
5.14173998044966e-1,-1.017e3,1.406e3,2.442e3,2.596e3,2.596e3,0
5.12218963831867e-1,-6.5e2,1.017e3,2.48e3,2.576e3,2.576e3,0
5.09286412512219e-1,-3.09e2,6.5e2,2.49e3,2.561e3,2.561e3,0
5.05376344086022e-1,-2.4e1,3.09e2,2.458e3,2.551e3,2.551e3,0
5.00488758553275e-1,1.69e2,2.4e1,2.389e3,2.541e3,2.541e3,0
4.95601173020528e-1,3.03e2,1.69e2,2.291e3,2.526e3,2.526e3,0
4.88758553274682e-1,3.97e2,3.03e2,2.186e3,2.503e3,2.503e3,0
4.80938416422287e-1,4.34e2,3.97e2,2.078e3,2.471e3,2.471e3,0
4.73118279569892e-1,4.07e2,4.34e2,1.972e3,2.43e3,2.43e3,0
4.63343108504399e-1,3.73e2,4.07e2,1.87e3,2.381e3,2.381e3,0
4.54545454545455e-1,3.05e2,3.73e2,1.771e3,2.326e3,2.326e3,0
4.43792766373412e-1,2.23e2,3.05e2,1.679e3,2.265e3,2.265e3,0
4.34017595307918e-1,1.47e2,2.23e2,1.594e3,2.2e3,2.2e3,0
4.24242424242424e-1,5.3e1,1.47e2,1.518e3,2.132e3,2.132e3,0
4.16422287390029e-1,2.0,5.3e1,1.448e3,2.063e3,2.063e3,0
4.07624633431085e-1,-9.0,2.0,1.383e3,1.994e3,1.994e3,0
3.97849462365591e-1,-1.3e1,9.0,1.32e3,1.925e3,1.925e3,0
3.89051808406647e-1,-5.8e1,1.3e1,1.26e3,1.856e3,1.856e3,0
3.79276637341153e-1,-9.1e1,5.8e1,1.197e3,1.788e3,1.788e3,0
3.71456500488759e-1,-1.07e2,9.1e1,1.132e3,1.721e3,1.721e3,0
3.62658846529814e-1,-1.16e2,1.07e2,1.061e3,1.654e3,1.654e3,0
3.54838709677419e-1,-9.6e1,1.16e2,9.84e2,1.587e3,1.587e3,0
3.47996089931574e-1,-9.4e1,9.6e1,9.01e2,1.519e3,1.519e3,0
3.41153470185728e-1,-4.9e1,9.4e1,8.13e2,1.45e3,1.45e3,0
3.34310850439883e-1,2.0,4.9e1,7.23e2,1.379e3,1.379e3,0
3.28445747800586e-1,2.8e1,2.0,6.29e2,1.306e3,1.306e3,0
3.24535679374389e-1,7.8e1,2.8e1,5.34e2,1.231e3,1.231e3,0
3.20625610948192e-1,1.65e2,7.8e1,4.45e2,1.153e3,1.153e3,0
3.17693059628543e-1,2.61e2,1.65e2,3.64e2,1.074e3,1.074e3,0
3.13782991202346e-1,3.42e2,2.61e2,2.97e2,9.94e2,9.94e2,0
3.10850439882698e-1,4.04e2,3.42e2,2.46e2,9.15e2,9.15e2,0
3.069403714565e-1,4.46e2,4.04e2,2.1e2,8.38e2,8.38e2,0
3.04007820136852e-1,4.76e2,4.46e2,1.9e2,7.65e2,7.65e2,0
3.00097751710655e-1,4.9e2,4.76e2,1.83e2,6.98e2,6.98e2,0
2.97165200391007e-1,4.94e2,4.9e2,1.89e2,6.37e2,6.37e2,0
2.94232649071359e-1,4.89e2,4.94e2,2.04e2,5.83e2,5.83e2,0
2.91300097751711e-1,4.95e2,4.89e2,2.15e2,5.37e2,5.37e2,0
2.87390029325513e-1,4.89e2,4.95e2,2.21e2,4.98e2,4.98e2,0
2.85434995112414e-1,4.52e2,4.89e2,2.25e2,4.64e2,4.64e2,0
2.83479960899316e-1,4.41e2,4.52e2,2.26e2,4.35e2,4.35e2,0
2.81524926686217e-1,4.58e2,4.41e2,2.28e2,4.1e2,4.1e2,0
2.78592375366569e-1,4.51e2,4.58e2,2.3e2,3.88e2,3.88e2,0
2.75659824046921e-1,4.19e2,4.51e2,2.35e2,3.69e2,3.69e2,0
2.72727272727273e-1,3.74e2,4.19e2,2.43e2,3.52e2,3.52e2,0
2.70772238514174e-1,3.3e2,3.74e2,2.52e2,3.38e2,3.38e2,0
2.67839687194526e-1,3.09e2,3.3e2,2.63e2,3.27e2,3.27e2,0
2.64907135874878e-1,2.8e2,3.09e2,2.74e2,3.18e2,3.18e2,0
2.62952101661779e-1,2.3e2,2.8e2,2.84e2,3.12e2,3.12e2,0
2.60019550342131e-1,2.09e2,2.3e2,2.92e2,3.08e2,3.08e2,0
2.58064516129032e-1,1.86e2,2.09e2,2.98e2,3.05e2,3.05e2,0
2.56109481915934e-1,1.54e2,1.86e2,3.02e2,3.03e2,3.03e2,0
2.55131964809384e-1,1.53e2,1.54e2,3.05e2,3.02e2,3.02e2,0
2.54154447702835e-1,1.57e2,1.53e2,3.06e2,3.02e2,3.02e2,0
2.52199413489736e-1,1.73e2,1.57e2,3.08e2,3.02e2,3.02e2,0
2.50244379276637e-1,1.61e2,1.73e2,3.1e2,3.02e2,3.02e2,0
2.48289345063539e-1,1.28e2,1.61e2,3.14e2,3.02e2,3.02e2,0
2.4633431085044e-1,1.1e2,1.28e2,3.2e2,3.03e2,3.03e2,0
2.43401759530792e-1,8.6e1,1.1e2,3.23e2,3.04e2,3.04e2,0
2.41446725317693e-1,4.7e1,8.6e1,3.24e2,3.06e2,3.06e2,0
2.39491691104594e-1,1.5e1,4.7e1,3.21e2,3.08e2,3.08e2,0
2.36559139784946e-1,9.0,1.5e1,3.14e2,3.09e2,3.09e2,0
2.34604105571848e-1,-2.2e1,9.0,3.03e2,3.09e2,3.09e2,0
2.32649071358749e-1,-4.8e1,2.2e1,2.9e2,3.08e2,3.08e2,0
2.32649071358749e-1,-4.2e1,4.8e1,2.76e2,3.06e2,3.06e2,0
2.32649071358749e-1,-1.3e1,4.2e1,2.62e2,3.03e2,3.03e2,0
2.31671554252199e-1,4.6e1,1.3e1,2.47e2,2.98e2,2.98e2,0
2.3069403714565e-1,6.2e1,4.6e1,2.31e2,2.92e2,2.92e2,0
2.29716520039101e-1,5.8e1,6.2e1,2.16e2,2.85e2,2.85e2,0
2.28739002932551e-1,6.5e1,5.8e1,2.01e2,2.77e2,2.77e2,0
2.26783968719453e-1,6.2e1,6.5e1,1.87e2,2.68e2,2.68e2,0
2.24828934506354e-1,4.2e1,6.2e1,1.74e2,2.59e2,2.59e2,0
2.22873900293255e-1,7.0,4.2e1,1.62e2,2.49e2,2.49e2,0
2.19941348973607e-1,-1.7e1,7.0,1.48e2,2.39e2,2.39e2,0
2.17986314760508e-1,-5.7e1,1.7e1,1.33e2,2.29e2,2.29e2,0
2.1603128054741e-1,-9.0e1,5.7e1,1.19e2,2.18e2,2.18e2,0
2.17008797653959e-1,-9.1e1,9.0e1,1.09e2,2.07e2,2.07e2,0
2.20918866080156e-1,-4.7e1,9.1e1,1.01e2,1.95e2,1.95e2,0
2.28739002932551e-1,9.6e1,4.7e1,9.4e1,1.84e2,1.84e2,0
2.43401759530792e-1,3.17e2,9.6e1,8.6e1,1.73e2,1.73e2,0
2.64907135874878e-1,6.71e2,3.17e2,8.1e1,1.63e2,1.63e2,0
2.95210166177908e-1,1.182e3,6.71e2,8.5e1,1.53e2,1.53e2,0
3.33333333333333e-1,1.821e3,1.182e3,1.01e2,1.44e2,1.44e2,0
3.79276637341153e-1,2.588e3,1.821e3,1.35e2,1.37e2,1.37e2,0
4.29130009775171e-1,3.415e3,2.588e3,1.91e2,1.34e2,1.34e2,0
4.81915933528837e-1,4.213e3,3.415e3,2.72e2,1.37e2,1.37e2,0
5.32746823069404e-1,4.896e3,4.213e3,3.8e2,1.48e2,1.48e2,0
5.79667644183773e-1,5.384e3,4.896e3,5.15e2,1.69e2,1.69e2,0
6.20723362658847e-1,5.591e3,5.384e3,6.74e2,2.01e2,2.01e2,0
6.49071358748778e-1,5.515e3,5.591e3,8.5e2,2.47e2,2.47e2,0
6.68621700879765e-1,5.058e3,5.515e3,1.034e3,3.07e2,3.07e2,0
6.83284457478006e-1,4.248e3,5.058e3,1.216e3,3.82e2,3.82e2,0
6.91104594330401e-1,3.354e3,4.248e3,1.385e3,4.69e2,4.69e2,0
6.91104594330401e-1,2.38e3,3.354e3,1.526e3,5.67e2,5.67e2,0
6.86217008797654e-1,1.279e3,2.38e3,1.637e3,6.71e2,6.71e2,0
6.7644183773216e-1,1.65e2,1.279e3,1.715e3,7.78e2,7.78e2,0
6.64711632453568e-1,-9.06e2,1.65e2,1.756e3,8.84e2,8.84e2,0
6.52003910068426e-1,-1.886e3,9.06e2,1.761e3,9.84e2,9.84e2,0
6.40273704789834e-1,-2.704e3,1.886e3,1.79e3,1.075e3,1.075e3,0
6.3147605083089e-1,-3.34e3,2.704e3,1.851e3,1.157e3,1.157e3,0
6.24633431085044e-1,-3.751e3,3.34e3,1.939e3,1.235e3,1.235e3,0
6.21700879765396e-1,-3.96e3,3.751e3,2.048e3,1.312e3,1.312e3,0
6.19745845552297e-1,-3.994e3,3.96e3,2.171e3,1.392e3,1.392e3,0
6.20723362658847e-1,-3.886e3,3.994e3,2.302e3,1.476e3,1.476e3,0
6.24633431085044e-1,-3.693e3,3.886e3,2.435e3,1.565e3,1.565e3,0
6.29521016617791e-1,-3.375e3,3.693e3,2.564e3,1.659e3,1.659e3,0
6.35386119257087e-1,-3.008e3,3.375e3,2.685e3,1.758e3,1.758e3,0
6.40273704789834e-1,-2.646e3,3.008e3,2.795e3,1.86e3,1.86e3,0
6.43206256109482e-1,-2.302e3,2.646e3,2.892e3,1.963e3,1.963e3,0
6.42228739002933e-1,-2.046e3,2.302e3,2.979e3,2.066e3,2.066e3,0
6.38318670576735e-1,-1.898e3,2.046e3,3.052e3,2.168e3,2.168e3,0
6.3147605083089e-1,-1.855e3,1.898e3,3.11e3,2.267e3,2.267e3,0
6.19745845552297e-1,-1.874e3,1.855e3,3.151e3,2.362e3,2.362e3,0
6.11925708699902e-1,-1.989e3,1.874e3,3.174e3,2.452e3,2.452e3,0
6.07038123167155e-1,-2.05e3,1.989e3,3.175e3,2.535e3,2.535e3,0
5.97262952101662e-1,-1.916e3,2.05e3,3.155e3,2.61e3,2.61e3,0
5.83577712609971e-1,-1.863e3,1.916e3,3.11e3,2.675e3,2.675e3,0
5.67937438905181e-1,-1.965e3,1.863e3,3.033e3,2.728e3,2.728e3,0
5.5425219941349e-1,-2.071e3,1.965e3,2.932e3,2.768e3,2.768e3,0
5.41544477028348e-1,-2.116e3,2.071e3,2.818e3,2.792e3,2.792e3,0
5.30791788856305e-1,-2.064e3,2.116e3,2.701e3,2.801e3,2.801e3,0
5.2297165200391e-1,-1.953e3,2.064e3,2.587e3,2.795e3,2.795e3,0
5.18084066471163e-1,-1.751e3,1.953e3,2.487e3,2.776e3,2.776e3,0
5.14173998044966e-1,-1.46e3,1.751e3,2.411e3,2.747e3,2.747e3,1
5.12218963831867e-1,-1.153e3,1.46e3,2.357e3,2.711e3,2.711e3,0
5.11241446725318e-1,-8.39e2,1.153e3,2.327e3,2.671e3,2.671e3,0
5.10263929618768e-1,-5.18e2,8.39e2,2.322e3,2.631e3,2.631e3,0
5.0830889540567e-1,-2.39e2,5.18e2,2.345e3,2.594e3,2.594e3,0
5.06353861192571e-1,-2.8e1,2.39e2,2.332e3,2.562e3,2.562e3,0
5.04398826979472e-1,1.36e2,2.8e1,2.277e3,2.535e3,2.535e3,0
5.00488758553275e-1,2.74e2,1.36e2,2.188e3,2.507e3,2.507e3,0
4.95601173020528e-1,3.46e2,2.74e2,2.081e3,2.474e3,2.474e3,0
4.89736070381232e-1,3.46e2,3.46e2,1.965e3,2.433e3,2.433e3,0
4.81915933528837e-1,3.21e2,3.46e2,1.844e3,2.384e3,2.384e3,0
4.74095796676442e-1,2.43e2,3.21e2,1.723e3,2.326e3,2.326e3,0
4.65298142717498e-1,1.44e2,2.43e2,1.604e3,2.261e3,2.261e3,0
4.55522971652004e-1,5.4e1,1.44e2,1.489e3,2.189e3,2.189e3,0
4.4574780058651e-1,-6.5e1,5.4e1,1.381e3,2.112e3,2.112e3,0
4.35972629521017e-1,-1.73e2,6.5e1,1.282e3,2.031e3,2.031e3,0
4.27174975562072e-1,-2.55e2,1.73e2,1.196e3,1.947e3,1.947e3,0
4.19354838709677e-1,-3.09e2,2.55e2,1.125e3,1.862e3,1.862e3,0
4.10557184750733e-1,-3.13e2,3.09e2,1.066e3,1.778e3,1.778e3,0
4.00782013685239e-1,-3.24e2,3.13e2,1.013e3,1.696e3,1.696e3,0
3.92961876832845e-1,-3.71e2,3.24e2,9.61e2,1.618e3,1.618e3,0
3.841642228739e-1,-3.74e2,3.71e2,9.09e2,1.543e3,1.543e3,0
3.77321603128055e-1,-3.54e2,3.74e2,8.55e2,1.47e3,1.47e3,0
3.70478983382209e-1,-3.3e2,3.54e2,8.0e2,1.4e3,1.4e3,0
3.64613880742913e-1,-2.62e2,3.3e2,7.47e2,1.332e3,1.332e3,0
3.58748778103617e-1,-1.99e2,2.62e2,6.96e2,1.265e3,1.265e3,0
3.5386119257087e-1,-1.29e2,1.99e2,6.39e2,1.2e3,1.2e3,0
3.48973607038123e-1,-5.1e1,1.29e2,5.77e2,1.136e3,1.136e3,0
3.45063538611926e-1,2.3e1,5.1e1,5.11e2,1.073e3,1.073e3,0
3.41153470185728e-1,1.02e2,2.3e1,4.44e2,1.01e3,1.01e3,0
3.3822091886608e-1,1.78e2,1.02e2,3.79e2,9.46e2,9.46e2,0
3.35288367546432e-1,2.52e2,1.78e2,3.24e2,8.82e2,8.82e2,0
3.32355816226784e-1,3.24e2,2.52e2,2.81e2,8.19e2,8.19e2,0
3.28445747800586e-1,3.74e2,3.24e2,2.51e2,7.57e2,7.57e2,0
3.26490713587488e-1,3.89e2,3.74e2,2.34e2,6.98e2,6.98e2,0
3.2355816226784e-1,4.19e2,3.89e2,2.29e2,6.44e2,6.44e2,0
3.21603128054741e-1,4.54e2,4.19e2,2.34e2,5.95e2,5.95e2,0
3.19648093841642e-1,4.64e2,4.54e2,2.47e2,5.51e2,5.51e2,0
3.17693059628543e-1,4.88e2,4.64e2,2.58e2,5.14e2,5.14e2,0
3.16715542521994e-1,4.96e2,4.88e2,2.64e2,4.82e2,4.82e2,0
3.14760508308895e-1,5.07e2,4.96e2,2.69e2,4.55e2,4.55e2,0
3.14760508308895e-1,5.13e2,5.07e2,2.74e2,4.32e2,4.32e2,0
3.13782991202346e-1,5.16e2,5.13e2,2.8e2,4.12e2,4.12e2,0
3.13782991202346e-1,5.36e2,5.16e2,2.89e2,3.95e2,3.95e2,0
3.12805474095797e-1,5.29e2,5.36e2,3.02e2,3.81e2,3.81e2,0
3.11827956989247e-1,5.19e2,5.29e2,3.18e2,3.7e2,3.7e2,0
3.10850439882698e-1,4.83e2,5.19e2,3.33e2,3.62e2,3.62e2,0
3.10850439882698e-1,4.45e2,4.83e2,3.45e2,3.57e2,3.57e2,0
3.10850439882698e-1,4.31e2,4.45e2,3.52e2,3.54e2,3.54e2,0
3.10850439882698e-1,4.19e2,4.31e2,3.57e2,3.53e2,3.53e2,0
3.10850439882698e-1,4.01e2,4.19e2,3.61e2,3.53e2,3.53e2,0
3.10850439882698e-1,3.76e2,4.01e2,3.64e2,3.53e2,3.53e2,0
3.10850439882698e-1,3.51e2,3.76e2,3.65e2,3.54e2,3.54e2,0
3.10850439882698e-1,3.21e2,3.51e2,3.65e2,3.55e2,3.55e2,0
3.10850439882698e-1,2.92e2,3.21e2,3.65e2,3.56e2,3.56e2,0
3.11827956989247e-1,2.61e2,2.92e2,3.65e2,3.56e2,3.56e2,0
3.12805474095797e-1,2.49e2,2.61e2,3.66e2,3.56e2,3.56e2,0
3.12805474095797e-1,2.5e2,2.49e2,3.68e2,3.57e2,3.57e2,0
3.12805474095797e-1,2.2e2,2.5e2,3.72e2,3.58e2,3.58e2,0
3.12805474095797e-1,1.76e2,2.2e2,3.78e2,3.59e2,3.59e2,0
3.12805474095797e-1,1.44e2,1.76e2,3.85e2,3.6e2,3.6e2,0
3.11827956989247e-1,1.1e2,1.44e2,3.88e2,3.62e2,3.62e2,0
3.10850439882698e-1,6.1e1,1.1e2,3.86e2,3.64e2,3.64e2,0
3.10850439882698e-1,2.0,6.1e1,3.82e2,3.66e2,3.66e2,0
3.09872922776149e-1,-2.3e1,2.0,3.73e2,3.68e2,3.68e2,0
3.08895405669599e-1,-4.9e1,2.3e1,3.6e2,3.69e2,3.69e2,0
3.08895405669599e-1,-9.6e1,4.9e1,3.48e2,3.68e2,3.68e2,0
3.08895405669599e-1,-1.05e2,9.6e1,3.36e2,3.66e2,3.66e2,0
3.08895405669599e-1,-9.9e1,1.05e2,3.24e2,3.63e2,3.63e2,1
3.08895405669599e-1,-1.02e2,9.9e1,3.12e2,3.59e2,3.59e2,0
3.08895405669599e-1,-1.0e2,1.02e2,2.99e2,3.54e2,3.54e2,0
3.09872922776149e-1,-9.9e1,1.0e2,2.86e2,3.48e2,3.48e2,0
3.12805474095797e-1,-8.0e1,9.9e1,2.72e2,3.41e2,3.41e2,0
3.18670576735093e-1,-9.0,8.0e1,2.59e2,3.33e2,3.33e2,0
3.29423264907136e-1,1.29e2,9.0,2.44e2,3.24e2,3.24e2,0
3.47018572825024e-1,3.71e2,1.29e2,2.26e2,3.15e2,3.15e2,0
3.71456500488759e-1,7.6e2,3.71e2,2.13e2,3.05e2,3.05e2,0
4.03714565004888e-1,1.286e3,7.6e2,2.08e2,2.94e2,2.94e2,0
4.43792766373412e-1,1.925e3,1.286e3,2.17e2,2.84e2,2.84e2,0
4.82893450635386e-1,2.67e3,1.925e3,2.45e2,2.75e2,2.75e2,0
5.21994134897361e-1,3.316e3,2.67e3,2.95e2,2.69e2,2.69e2,0
5.6891495601173e-1,3.744e3,3.316e3,3.7e2,2.69e2,2.69e2,0
6.16813294232649e-1,4.217e3,3.744e3,4.68e2,2.76e2,2.76e2,0
6.62756598240469e-1,4.693e3,4.217e3,5.8e2,2.92e2,2.92e2,0
7.02834799608993e-1,4.93e3,4.693e3,7.09e2,3.19e2,3.19e2,0
7.36070381231672e-1,4.923e3,4.93e3,8.55e2,3.57e2,3.57e2,0
7.59530791788856e-1,4.63e3,4.923e3,1.009e3,4.07e2,4.07e2,0
7.74193548387097e-1,4.044e3,4.63e3,1.165e3,4.68e2,4.68e2,0
7.82013685239492e-1,3.209e3,4.044e3,1.311e3,5.41e2,5.41e2,0
7.82013685239492e-1,2.234e3,3.209e3,1.438e3,6.23e2,6.23e2,0
7.78103616813294e-1,1.174e3,2.234e3,1.537e3,7.11e2,7.11e2,0
7.70283479960899e-1,9.1e1,1.174e3,1.606e3,8.02e2,8.02e2,0
7.61485826001955e-1,-9.08e2,9.1e1,1.64e3,8.92e2,8.92e2,0
7.51710654936461e-1,-1.803e3,9.08e2,1.64e3,9.78e2,9.78e2,0
7.41935483870968e-1,-2.543e3,1.803e3,1.668e3,1.056e3,1.056e3,0
7.34115347018573e-1,-3.137e3,2.543e3,1.728e3,1.126e3,1.126e3,0
7.28250244379277e-1,-3.552e3,3.137e3,1.812e3,1.193e3,1.193e3,0
7.26295210166178e-1,-3.774e3,3.552e3,1.915e3,1.26e3,1.26e3,0
7.25317693059629e-1,-3.818e3,3.774e3,2.03e3,1.331e3,1.331e3,0
7.28250244379277e-1,-3.725e3,3.818e3,2.153e3,1.406e3,1.406e3,0
7.32160312805474e-1,-3.527e3,3.725e3,2.277e3,1.486e3,1.486e3,0
7.36070381231672e-1,-3.229e3,3.527e3,2.398e3,1.571e3,1.571e3,0
7.40957966764418e-1,-2.941e3,3.229e3,2.512e3,1.661e3,1.661e3,0
7.42913000977517e-1,-2.646e3,2.941e3,2.616e3,1.754e3,1.754e3,0
7.42913000977517e-1,-2.39e3,2.646e3,2.712e3,1.849e3,1.849e3,0
7.40957966764418e-1,-2.245e3,2.39e3,2.8e3,1.945e3,1.945e3,0
7.36070381231672e-1,-2.131e3,2.245e3,2.875e3,2.04e3,2.04e3,0
7.27272727272727e-1,-2.087e3,2.131e3,2.938e3,2.133e3,2.133e3,0
7.16520039100684e-1,-2.136e3,2.087e3,2.983e3,2.224e3,2.224e3,0
7.02834799608993e-1,-2.226e3,2.136e3,3.01e3,2.31e3,2.31e3,0
6.86217008797654e-1,-2.338e3,2.226e3,3.017e3,2.39e3,2.39e3,0
6.69599217986315e-1,-2.494e3,2.338e3,3.002e3,2.463e3,2.463e3,0
6.52981427174976e-1,-2.621e3,2.494e3,2.97e3,2.527e3,2.527e3,0
6.36363636363636e-1,-2.67e3,2.621e3,2.928e3,2.58e3,2.58e3,0
6.21700879765396e-1,-2.682e3,2.67e3,2.875e3,2.623e3,2.623e3,0
6.08993157380254e-1,-2.614e3,2.682e3,2.807e3,2.655e3,2.655e3,0
5.99217986314761e-1,-2.449e3,2.614e3,2.732e3,2.676e3,2.676e3,0
5.91397849462366e-1,-2.204e3,2.449e3,2.655e3,2.686e3,2.686e3,0
5.86510263929619e-1,-1.892e3,2.204e3,2.582e3,2.686e3,2.686e3,0
5.82600195503421e-1,-1.534e3,1.892e3,2.521e3,2.677e3,2.677e3,0
5.80645161290323e-1,-1.156e3,1.534e3,2.477e3,2.661e3,2.661e3,0
5.78690127077224e-1,-7.87e2,1.156e3,2.454e3,2.641e3,2.641e3,0
5.77712609970675e-1,-4.41e2,7.87e2,2.453e3,2.619e3,2.619e3,0
5.74780058651026e-1,-1.37e2,4.41e2,2.476e3,2.598e3,2.598e3,0
5.71847507331378e-1,9.5e1,1.37e2,2.461e3,2.581e3,2.581e3,0
5.67937438905181e-1,2.51e2,9.5e1,2.405e3,2.567e3,2.567e3,0
5.63049853372434e-1,3.69e2,2.51e2,2.324e3,2.55e3,2.55e3,0
5.56207233626588e-1,4.26e2,3.69e2,2.227e3,2.527e3,2.527e3,0
5.50342130987292e-1,4.13e2,4.26e2,2.121e3,2.496e3,2.496e3,0
5.43499511241447e-1,3.93e2,4.13e2,2.01e3,2.457e3,2.457e3,0
5.36656891495601e-1,3.73e2,3.93e2,1.896e3,2.41e3,2.41e3,0
5.27859237536657e-1,3.25e2,3.73e2,1.785e3,2.355e3,2.355e3,0
5.19061583577713e-1,2.46e2,3.25e2,1.68e3,2.293e3,2.293e3,0
5.10263929618768e-1,1.45e2,2.46e2,1.583e3,2.226e3,2.226e3,0
5.00488758553275e-1,6.6e1,1.45e2,1.493e3,2.155e3,2.155e3,0
4.90713587487781e-1,-2.0e1,6.6e1,1.409e3,2.081e3,2.081e3,0
4.80938416422287e-1,-1.16e2,2.0e1,1.332e3,2.006e3,2.006e3,0
4.71163245356794e-1,-1.83e2,1.16e2,1.258e3,1.93e3,1.93e3,0
4.62365591397849e-1,-2.43e2,1.83e2,1.19e3,1.854e3,1.854e3,0
4.53567937438905e-1,-2.73e2,2.43e2,1.127e3,1.779e3,1.779e3,0
4.44770283479961e-1,-2.78e2,2.73e2,1.064e3,1.705e3,1.705e3,0
4.37927663734115e-1,-2.88e2,2.78e2,9.99e2,1.632e3,1.632e3,0
4.32062561094819e-1,-2.54e2,2.88e2,9.3e2,1.56e3,1.56e3,0
4.25219941348974e-1,-1.72e2,2.54e2,8.56e2,1.489e3,1.489e3,0
4.19354838709677e-1,-1.22e2,1.72e2,7.77e2,1.418e3,1.418e3,0
4.13489736070381e-1,-7.8e1,1.22e2,6.94e2,1.346e3,1.346e3,0
4.07624633431085e-1,-1.6e1,7.8e1,6.09e2,1.273e3,1.273e3,0
4.02737047898338e-1,2.4e1,1.6e1,5.24e2,1.199e3,1.199e3,0
3.97849462365591e-1,7.5e1,2.4e1,4.43e2,1.124e3,1.124e3,0
3.93939393939394e-1,1.34e2,7.5e1,3.7e2,1.048e3,1.048e3,0
3.90029325513196e-1,1.88e2,1.34e2,3.1e2,9.71e2,9.71e2,0
3.86119257086999e-1,2.5e2,1.88e2,2.63e2,8.96e2,8.96e2,0
3.82209188660802e-1,2.88e2,2.5e2,2.31e2,8.23e2,8.23e2,0
3.79276637341153e-1,3.15e2,2.88e2,2.13e2,7.54e2,7.54e2,0
3.77321603128055e-1,3.53e2,3.15e2,2.08e2,6.9e2,6.9e2,0
3.74389051808407e-1,4.09e2,3.53e2,2.14e2,6.33e2,6.33e2,0
3.71456500488759e-1,4.41e2,4.09e2,2.22e2,5.82e2,5.82e2,0
3.6852394916911e-1,4.36e2,4.41e2,2.27e2,5.38e2,5.38e2,0
3.66568914956012e-1,4.35e2,4.36e2,2.3e2,5.0e2,5.0e2,0
3.63636363636364e-1,4.41e2,4.35e2,2.3e2,4.67e2,4.67e2,0
3.61681329423265e-1,4.36e2,4.41e2,2.31e2,4.38e2,4.38e2,0
3.58748778103617e-1,4.2e2,4.36e2,2.33e2,4.13e2,4.13e2,0
3.56793743890518e-1,4.04e2,4.2e2,2.35e2,3.91e2,3.91e2,0
3.5386119257087e-1,3.79e2,4.04e2,2.38e2,3.72e2,3.72e2,0
3.51906158357771e-1,3.54e2,3.79e2,2.43e2,3.55e2,3.55e2,0
3.49951124144673e-1,3.25e2,3.54e2,2.51e2,3.41e2,3.41e2,0
3.47996089931574e-1,3.13e2,3.25e2,2.61e2,3.29e2,3.29e2,0
3.47018572825024e-1,2.95e2,3.13e2,2.71e2,3.2e2,3.2e2,0
3.45063538611926e-1,2.87e2,2.95e2,2.77e2,3.13e2,3.13e2,0
3.42130987292278e-1,2.79e2,2.87e2,2.81e2,3.08e2,3.08e2,0
3.40175953079179e-1,2.19e2,2.79e2,2.82e2,3.04e2,3.04e2,0
3.37243401759531e-1,1.79e2,2.19e2,2.83e2,3.01e2,3.01e2,0
3.35288367546432e-1,1.44e2,1.79e2,2.81e2,2.98e2,2.98e2,0
3.32355816226784e-1,1.02e2,1.44e2,2.77e2,2.96e2,2.96e2,0
3.30400782013685e-1,7.4e1,1.02e2,2.73e2,2.93e2,2.93e2,0
3.29423264907136e-1,4.1e1,7.4e1,2.71e2,2.9e2,2.9e2,0
3.27468230694037e-1,5.3e1,4.1e1,2.69e2,2.87e2,2.87e2,0
3.25513196480938e-1,5.4e1,5.3e1,2.68e2,2.84e2,2.84e2,0
3.24535679374389e-1,2.5e1,5.4e1,2.69e2,2.82e2,2.82e2,0
3.2355816226784e-1,3.4e1,2.5e1,2.7e2,2.8e2,2.8e2,0
3.2258064516129e-1,4.9e1,3.4e1,2.69e2,2.78e2,2.78e2,0
3.20625610948192e-1,5.3e1,4.9e1,2.65e2,2.76e2,2.76e2,0
3.19648093841642e-1,3.9e1,5.3e1,2.61e2,2.74e2,2.74e2,0
3.17693059628543e-1,2.7e1,3.9e1,2.54e2,2.72e2,2.72e2,0
3.15738025415445e-1,2.0e1,2.7e1,2.46e2,2.7e2,2.7e2,0
3.13782991202346e-1,-1.2e1,2.0e1,2.36e2,2.67e2,2.67e2,0
3.11827956989247e-1,-3.2e1,1.2e1,2.25e2,2.63e2,2.63e2,0
3.09872922776149e-1,-4.8e1,3.2e1,2.12e2,2.59e2,2.59e2,0
3.069403714565e-1,-6.7e1,4.8e1,1.98e2,2.54e2,2.54e2,0
3.04985337243402e-1,-9.6e1,6.7e1,1.85e2,2.48e2,2.48e2,0
3.03030303030303e-1,-1.22e2,9.6e1,1.73e2,2.41e2,2.41e2,0
3.02052785923754e-1,-1.17e2,1.22e2,1.62e2,2.33e2,2.33e2,0
3.03030303030303e-1,-1.03e2,1.17e2,1.51e2,2.25e2,2.25e2,0
3.069403714565e-1,-3.7e1,1.03e2,1.41e2,2.16e2,2.16e2,0
3.16715542521994e-1,1.02e2,3.7e1,1.31e2,2.07e2,2.07e2,0
3.32355816226784e-1,3.59e2,1.02e2,1.2e2,1.98e2,1.98e2,0
3.56793743890518e-1,7.61e2,3.59e2,1.11e2,1.89e2,1.89e2,0
3.89051808406647e-1,1.309e3,7.61e2,1.12e2,1.8e2,1.8e2,0
4.3010752688172e-1,2.01e3,1.309e3,1.27e2,1.71e2,1.71e2,0
4.7702834799609e-1,2.807e3,2.01e3,1.61e2,1.64e2,1.64e2,0
5.27859237536657e-1,3.643e3,2.807e3,2.19e2,1.61e2,1.61e2,0
5.79667644183773e-1,4.411e3,3.643e3,3.03e2,1.64e2,1.64e2,0
6.3049853372434e-1,5.035e3,4.411e3,4.17e2,1.75e2,1.75e2,0
6.70576735092864e-1,5.464e3,5.035e3,5.58e2,1.96e2,1.96e2,0
7.02834799608993e-1,5.511e3,5.464e3,7.21e2,2.3e2,2.3e2,0
7.31182795698925e-1,5.149e3,5.511e3,9.0e2,2.78e2,2.78e2,0
7.5366568914956e-1,4.639e3,5.149e3,1.082e3,3.4e2,3.4e2,0
7.6930596285435e-1,4.003e3,4.639e3,1.252e3,4.16e2,4.16e2,0
7.77126099706745e-1,3.185e3,4.003e3,1.405e3,5.04e2,5.04e2,0
7.78103616813294e-1,2.236e3,3.185e3,1.537e3,6.01e2,6.01e2,0
7.75171065493646e-1,1.179e3,2.236e3,1.642e3,7.03e2,7.03e2,0
7.68328445747801e-1,1.33e2,1.179e3,1.716e3,8.07e2,8.07e2,0
7.61485826001955e-1,-8.49e2,1.33e2,1.753e3,9.09e2,9.09e2,0
7.5366568914956e-1,-1.711e3,8.49e2,1.756e3,1.006e3,1.006e3,0
7.47800586510264e-1,-2.404e3,1.711e3,1.783e3,1.094e3,1.094e3,0
7.43890518084066e-1,-2.936e3,2.404e3,1.839e3,1.173e3,1.173e3,0
7.40957966764418e-1,-3.264e3,2.936e3,1.919e3,1.248e3,1.248e3,0
7.39980449657869e-1,-3.452e3,3.264e3,2.016e3,1.322e3,1.322e3,0
7.41935483870968e-1,-3.524e3,3.452e3,2.124e3,1.398e3,1.398e3,0
7.46823069403715e-1,-3.441e3,3.524e3,2.237e3,1.477e3,1.477e3,0
7.52688172043011e-1,-3.236e3,3.441e3,2.353e3,1.559e3,1.559e3,0
7.60508308895406e-1,-2.967e3,3.236e3,2.464e3,1.645e3,1.645e3,0
7.67350928641251e-1,-2.662e3,2.967e3,2.568e3,1.734e3,1.734e3,0
7.72238514173998e-1,-2.357e3,2.662e3,2.663e3,1.826e3,1.826e3,0
7.75171065493646e-1,-2.135e3,2.357e3,2.749e3,1.919e3,1.919e3,0
7.74193548387097e-1,-1.98e3,2.135e3,2.826e3,2.011e3,2.011e3,0
7.70283479960899e-1,-1.913e3,1.98e3,2.894e3,2.102e3,2.102e3,0
7.62463343108504e-1,-1.945e3,1.913e3,2.948e3,2.191e3,2.191e3,0
7.50733137829912e-1,-2.039e3,1.945e3,2.986e3,2.276e3,2.276e3,0
7.3802541544477e-1,-2.215e3,2.039e3,3.008e3,2.357e3,2.357e3,0
7.20430107526882e-1,-2.393e3,2.215e3,3.009e3,2.432e3,2.432e3,0
7.00879765395894e-1,-2.591e3,2.393e3,2.989e3,2.499e3,2.499e3,0
6.79374389051808e-1,-2.843e3,2.591e3,2.947e3,2.557e3,2.557e3,0
6.57869012707722e-1,-3.044e3,2.843e3,2.886e3,2.605e3,2.605e3,0
6.36363636363636e-1,-3.195e3,3.044e3,2.813e3,2.641e3,2.641e3,0
6.17790811339198e-1,-3.27e3,3.195e3,2.733e3,2.665e3,2.665e3,0
6.02150537634409e-1,-3.224e3,3.27e3,2.655e3,2.677e3,2.677e3,0
5.89442815249267e-1,-3.043e3,3.224e3,2.593e3,2.678e3,2.678e3,0
5.79667644183773e-1,-2.758e3,3.043e3,2.545e3,2.671e3,2.671e3,0
5.72825024437928e-1,-2.397e3,2.758e3,2.513e3,2.658e3,2.658e3,0
5.6891495601173e-1,-1.967e3,2.397e3,2.499e3,2.642e3,2.642e3,1
5.65004887585533e-1,-1.495e3,1.967e3,2.505e3,2.625e3,2.625e3,0
5.63049853372434e-1,-1.046e3,1.495e3,2.531e3,2.609e3,2.609e3,0
5.61094819159335e-1,-6.36e2,1.046e3,2.576e3,2.597e3,2.597e3,0
5.59139784946237e-1,-2.48e2,6.36e2,2.583e3,2.591e3,2.591e3,0
5.56207233626588e-1,6.6e1,2.48e2,2.547e3,2.589e3,2.589e3,0
5.41544477028348e-1,3.07e2,6.6e1,2.475e3,2.585e3,2.585e3,0
5.20039100684262e-1,2.68e2,3.07e2,2.379e3,2.575e3,2.575e3,0
5.06353861192571e-1,-9.4e1,2.68e2,2.281e3,2.557e3,2.557e3,0
4.94623655913978e-1,-2.7e2,9.4e1,2.174e3,2.529e3,2.529e3,0
4.84848484848485e-1,-2.21e2,2.7e2,2.06e3,2.492e3,2.492e3,0
4.74095796676442e-1,-1.91e2,2.21e2,1.954e3,2.447e3,2.447e3,0
4.64320625610948e-1,-1.37e2,1.91e2,1.854e3,2.394e3,2.394e3,0
4.55522971652004e-1,-9.9e1,1.37e2,1.761e3,2.335e3,2.335e3,0
4.4574780058651e-1,-3.4e1,9.9e1,1.677e3,2.272e3,2.272e3,0
4.35972629521017e-1,2.2e1,3.4e1,1.602e3,2.206e3,2.206e3,0
4.25219941348974e-1,3.2e1,2.2e1,1.531e3,2.138e3,2.138e3,0
4.1544477028348e-1,3.9e1,3.2e1,1.466e3,2.07e3,2.07e3,0
4.04692082111437e-1,3.7e1,3.9e1,1.403e3,2.002e3,2.002e3,0
3.94916911045943e-1,4.0e1,3.7e1,1.34e3,1.934e3,1.934e3,0
3.8514173998045e-1,3.5e1,4.0e1,1.273e3,1.867e3,1.867e3,0
3.76344086021505e-1,5.0e1,3.5e1,1.201e3,1.8e3,1.8e3,0
3.6852394916911e-1,7.6e1,5.0e1,1.122e3,1.733e3,1.733e3,0
3.60703812316716e-1,1.25e2,7.6e1,1.037e3,1.665e3,1.665e3,0
3.52883675464321e-1,1.78e2,1.25e2,9.45e2,1.595e3,1.595e3,0
3.47018572825024e-1,2.08e2,1.78e2,8.47e2,1.523e3,1.523e3,0
3.42130987292278e-1,2.72e2,2.08e2,7.47e2,1.448e3,1.448e3,0
3.37243401759531e-1,3.68e2,2.72e2,6.45e2,1.37e3,1.37e3,0
3.32355816226784e-1,4.43e2,3.68e2,5.46e2,1.29e3,1.29e3,0
3.27468230694037e-1,4.94e2,4.43e2,4.57e2,1.207e3,1.207e3,0
3.2258064516129e-1,5.32e2,4.94e2,3.8e2,1.123e3,1.123e3,0
3.18670576735093e-1,5.52e2,5.32e2,3.16e2,1.039e3,1.039e3,0
3.14760508308895e-1,5.79e2,5.52e2,2.68e2,9.57e2,9.57e2,0
3.10850439882698e-1,6.07e2,5.79e2,2.37e2,8.78e2,8.78e2,0
3.0791788856305e-1,6.13e2,6.07e2,2.21e2,8.03e2,8.03e2,0
3.04007820136852e-1,6.28e2,6.13e2,2.2e2,7.34e2,7.34e2,0
3.01075268817204e-1,6.28e2,6.28e2,2.33e2,6.73e2,6.73e2,0
2.99120234604106e-1,6.1e2,6.28e2,2.51e2,6.2e2,6.2e2,0
2.97165200391007e-1,6.31e2,6.1e2,2.62e2,5.75e2,5.75e2,0
2.95210166177908e-1,6.45e2,6.31e2,2.73e2,5.37e2,5.37e2,0
2.93255131964809e-1,6.37e2,6.45e2,2.91e2,5.05e2,5.05e2,0
2.90322580645161e-1,6.26e2,6.37e2,3.04e2,4.78e2,4.78e2,0
2.87390029325513e-1,5.84e2,6.26e2,3.18e2,4.56e2,4.56e2,0
2.85434995112414e-1,5.24e2,5.84e2,3.32e2,4.38e2,4.38e2,0
2.83479960899316e-1,4.91e2,5.24e2,3.47e2,4.24e2,4.24e2,0
2.80547409579668e-1,4.68e2,4.91e2,3.61e2,4.13e2,4.13e2,0
2.78592375366569e-1,4.15e2,4.68e2,3.77e2,4.05e2,4.05e2,0
2.7663734115347e-1,3.68e2,4.15e2,3.91e2,4.0e2,4.0e2,0
2.73704789833822e-1,3.46e2,3.68e2,4.04e2,3.98e2,3.98e2,0
2.70772238514174e-1,2.91e2,3.46e2,4.15e2,3.97e2,3.97e2,0
2.68817204301075e-1,2.26e2,2.91e2,4.26e2,3.98e2,3.98e2,0
2.66862170087977e-1,1.96e2,2.26e2,4.34e2,4.0e2,4.0e2,0
2.64907135874878e-1,1.77e2,1.96e2,4.4e2,4.03e2,4.03e2,0
2.62952101661779e-1,1.52e2,1.77e2,4.45e2,4.06e2,4.06e2,0
2.6099706744868e-1,1.3e2,1.52e2,4.49e2,4.1e2,4.1e2,0
2.58064516129032e-1,1.08e2,1.3e2,4.49e2,4.14e2,4.14e2,0
2.56109481915934e-1,6.8e1,1.08e2,4.48e2,4.18e2,4.18e2,0
2.53176930596285e-1,3.6e1,6.8e1,4.44e2,4.21e2,4.21e2,0
2.50244379276637e-1,1.1e1,3.6e1,4.38e2,4.23e2,4.23e2,0
2.48289345063539e-1,-3.5e1,1.1e1,4.27e2,4.25e2,4.25e2,0
2.4633431085044e-1,-4.8e1,3.5e1,4.12e2,4.25e2,4.25e2,0
2.44379276637341e-1,-4.1e1,4.8e1,3.97e2,4.24e2,4.24e2,0
2.42424242424242e-1,-4.8e1,4.1e1,3.81e2,4.21e2,4.21e2,0
2.41446725317693e-1,-4.7e1,4.8e1,3.64e2,4.17e2,4.17e2,0
2.41446725317693e-1,-3.1e1,4.7e1,3.46e2,4.11e2,4.11e2,0
2.41446725317693e-1,1.7e1,3.1e1,3.27e2,4.04e2,4.04e2,0
2.40469208211144e-1,6.6e1,1.7e1,3.08e2,3.95e2,3.95e2,0
2.39491691104594e-1,8.0e1,6.6e1,2.88e2,3.85e2,3.85e2,0
2.39491691104594e-1,7.7e1,8.0e1,2.69e2,3.74e2,3.74e2,0
2.38514173998045e-1,9.7e1,7.7e1,2.51e2,3.62e2,3.62e2,0
2.37536656891496e-1,1.07e2,9.7e1,2.33e2,3.49e2,3.49e2,0
2.37536656891496e-1,8.9e1,1.07e2,2.14e2,3.36e2,3.36e2,0
2.36559139784946e-1,1.0e2,8.9e1,1.97e2,3.22e2,3.22e2,0
2.34604105571848e-1,1.03e2,1.0e2,1.79e2,3.08e2,3.08e2,0
2.32649071358749e-1,5.8e1,1.03e2,1.63e2,2.93e2,2.93e2,0
2.3069403714565e-1,1.5e1,5.8e1,1.49e2,2.78e2,2.78e2,0
2.28739002932551e-1,-1.8e1,1.5e1,1.34e2,2.63e2,2.63e2,0
2.27761485826002e-1,-5.0e1,1.8e1,1.19e2,2.48e2,2.48e2,0
2.26783968719453e-1,-5.6e1,5.0e1,1.06e2,2.33e2,2.33e2,0
2.26783968719453e-1,-4.6e1,5.6e1,9.5e1,2.18e2,2.18e2,0
2.28739002932551e-1,-2.6e1,4.6e1,8.5e1,2.04e2,2.04e2,0
2.36559139784946e-1,4.5e1,2.6e1,7.7e1,1.9e2,1.9e2,0
2.50244379276637e-1,2.41e2,4.5e1,7.1e1,1.77e2,1.77e2,0
2.71749755620723e-1,5.94e2,2.41e2,6.6e1,1.64e2,1.64e2,0
3.02052785923754e-1,1.088e3,5.94e2,6.8e1,1.52e2,1.52e2,0
3.41153470185728e-1,1.745e3,1.088e3,8.2e1,1.41e2,1.41e2,0
3.87096774193548e-1,2.538e3,1.745e3,1.14e2,1.33e2,1.33e2,0
4.38905180840665e-1,3.382e3,2.538e3,1.69e2,1.28e2,1.28e2,0
4.85826001955034e-1,4.215e3,3.382e3,2.51e2,1.29e2,1.29e2,0
5.28836754643206e-1,4.813e3,4.215e3,3.63e2,1.38e2,1.38e2,0
5.74780058651026e-1,5.053e3,4.813e3,5.03e2,1.57e2,1.57e2,0
6.19745845552297e-1,5.214e3,5.053e3,6.63e2,1.89e2,1.89e2,0
6.56891495601173e-1,5.32e3,5.214e3,8.3e2,2.35e2,2.35e2,0
6.87194525904203e-1,5.119e3,5.32e3,1.002e3,2.95e2,2.95e2,0
7.0772238514174e-1,4.636e3,5.119e3,1.178e3,3.68e2,3.68e2,0
7.19452590420332e-1,3.915e3,4.636e3,1.347e3,4.53e2,4.53e2,0
7.24340175953079e-1,2.952e3,3.915e3,1.501e3,5.48e2,5.48e2,0
7.2238514173998e-1,1.884e3,2.952e3,1.631e3,6.51e2,6.51e2,0
7.17497556207234e-1,7.66e2,1.884e3,1.727e3,7.59e2,7.59e2,0
7.09677419354839e-1,-3.24e2,7.66e2,1.787e3,8.67e2,8.67e2,0
7.01857282502444e-1,-1.294e3,3.24e2,1.81e3,9.72e2,9.72e2,0
6.94037145650049e-1,-2.131e3,1.294e3,1.818e3,1.069e3,1.069e3,0
6.87194525904203e-1,-2.785e3,2.131e3,1.857e3,1.156e3,1.156e3,0
6.84261974584555e-1,-3.276e3,2.785e3,1.925e3,1.236e3,1.236e3,0
6.83284457478006e-1,-3.554e3,3.276e3,2.015e3,1.313e3,1.313e3,0
6.84261974584555e-1,-3.634e3,3.554e3,2.121e3,1.39e3,1.39e3,0
6.88172043010753e-1,-3.612e3,3.634e3,2.238e3,1.469e3,1.469e3,0
6.94037145650049e-1,-3.456e3,3.612e3,2.358e3,1.552e3,1.552e3,0
7.00879765395894e-1,-3.2e3,3.456e3,2.478e3,1.639e3,1.639e3,0
7.0772238514174e-1,-2.911e3,3.2e3,2.592e3,1.73e3,1.73e3,0
7.14565004887586e-1,-2.617e3,2.911e3,2.697e3,1.824e3,1.824e3,0
7.18475073313783e-1,-2.339e3,2.617e3,2.792e3,1.92e3,1.92e3,0
7.20430107526882e-1,-2.127e3,2.339e3,2.879e3,2.017e3,2.017e3,0
7.17497556207234e-1,-2.006e3,2.127e3,2.955e3,2.113e3,2.113e3,0
7.11632453567937e-1,-1.98e3,2.006e3,3.018e3,2.207e3,2.207e3,0
7.02834799608993e-1,-2.057e3,1.98e3,3.065e3,2.298e3,2.298e3,0
6.90127077223851e-1,-2.167e3,2.057e3,3.095e3,2.385e3,2.385e3,0
6.73509286412512e-1,-2.335e3,2.167e3,3.105e3,2.466e3,2.466e3,0
6.54936461388074e-1,-2.571e3,2.335e3,3.093e3,2.54e3,2.54e3,0
6.34408602150538e-1,-2.803e3,2.571e3,3.058e3,2.605e3,2.605e3,0
6.12903225806452e-1,-3.009e3,2.803e3,3.003e3,2.66e3,2.66e3,0
5.92375366568915e-1,-3.18e3,3.009e3,2.936e3,2.703e3,2.703e3,0
5.73802541544477e-1,-3.264e3,3.18e3,2.868e3,2.734e3,2.734e3,0
5.57184750733138e-1,-3.228e3,3.264e3,2.8e3,2.753e3,2.753e3,0
5.43499511241447e-1,-3.092e3,3.228e3,2.731e3,2.762e3,2.762e3,0
5.32746823069404e-1,-2.857e3,3.092e3,2.668e3,2.761e3,2.761e3,0
5.25904203323558e-1,-2.524e3,2.857e3,2.617e3,2.753e3,2.753e3,0
5.20039100684262e-1,-2.106e3,2.524e3,2.582e3,2.739e3,2.739e3,1
5.16129032258065e-1,-1.659e3,2.106e3,2.567e3,2.722e3,2.722e3,0
5.13196480938416e-1,-1.23e3,1.659e3,2.575e3,2.704e3,2.704e3,0
5.11241446725318e-1,-8.05e2,1.23e3,2.605e3,2.687e3,2.687e3,0
5.09286412512219e-1,-4.14e2,8.05e2,2.635e3,2.675e3,2.675e3,0
5.0733137829912e-1,-7.5e1,4.14e2,2.618e3,2.668e3,2.668e3,0
5.03421309872923e-1,2.08e2,7.5e1,2.561e3,2.662e3,2.662e3,0
4.99511241446725e-1,4.0e2,2.08e2,2.471e3,2.652e3,2.652e3,0
4.94623655913978e-1,5.23e2,4.0e2,2.368e3,2.635e3,2.635e3,0
4.87781036168133e-1,6.1e2,5.23e2,2.263e3,2.609e3,2.609e3,0
4.79960899315738e-1,6.17e2,6.1e2,2.159e3,2.573e3,2.573e3,0
4.72140762463343e-1,5.65e2,6.17e2,2.059e3,2.529e3,2.529e3,0
4.64320625610948e-1,5.12e2,5.65e2,1.965e3,2.478e3,2.478e3,0
4.55522971652004e-1,4.57e2,5.12e2,1.877e3,2.422e3,2.422e3,0
4.4574780058651e-1,3.84e2,4.57e2,1.797e3,2.362e3,2.362e3,0
